date,UNH,CMG,KSS,TPR,DISCA,WM,RJF,PLD,SEE,BHF,SRCL,DOV,DHI,ILMN,WDC,CELG,PKG,WRK,OKE,MMM,FOXA,PCG,SYY,HII,XRAY,DTE,RCL,AIG,TSN,CSX,LH,MRK,AIZ,HPQ,BAX,TMO,WEC,AMT,CMI,ORLY,XEL,MCK,ANET,L,AJG,VLO,FTNT,PXD,UDR,JBHT,DHR,SIVB,T,NOV,FLR,REGN,UPS,NFX,OMC,FCX,KO,NTRS,AMZN,EOG,KIM,VTR,AAL,PFE,HRS,INTC,TDG,EBAY,USB,LLY,LOW,DISCK,PGR,TSCO,LEN,ADM,HCP,PKI,AMG,INCY,DAL,COO,WLTW,COL,NEM,ROST,WMB,RTN,ADS,EQT,SNA,ALXN,MLM,ALLE,KMB,ARNC,CERN,MAR,XRX,SHW,FRT,CPRT,DRI,ABC,VRSN,CFG,XOM,INFO,AEE,WHR,ETFC,MMC,CCL,RMD,HPE,CPB,KHC,AKAM,BXP,LLL,CHTR,AAPL,HRL,SYMC,K,MSI,MAA,EQIX,BA,NOC,PNC,SJM,LKQ,SLG,CF,FAST,ADP,GT,CXO,ADI,AAP,VRTX,PPL,DVN,TSS,KR,JNPR,ES,GWW,UNM,DISH,ESRX,CL,BLL,XYL,LB,MS,FB,APD,CBS,SPG,DLTR,SRE,DVA,ABT,KMI,GLW,BBT,UTX,VZ,ABMD,HRB,CTSH,IDXX,PBCT,EXC,PPG,PHM,KEY,BRK-B,SYF,ROL,STI,GPC,FITB,HOLX,ESS,FLT,CVX,ACN,FIS,STZ,M,GILD,AGN,CME,MAC,AWK,MTB,YUM,TWTR,REG,COG,BHGE,PNR,BLK,GRMN,HLT,AXP,NCLH,MRO,COF,HON,HAL,CVS,SWKS,ETN,RL,MTD,CTL,ALGN,JEF,NWSA,CHD,AON,NLSN,LEG,PSX,WFC,AMAT,CBOE,VMC,JWN,SBUX,HUM,AIV,WMT,FDX,ICE,EFX,ISRG,WELL,DRE,IP,RHT,IQV,TXT,MAT,KSU,PM,CNP,JPM,NKE,CI,AMP,RSG,FE,SCHW,TGT,PRGO,ZTS,GPN,PAYX,BIIB,PYPL,PVH,MCO,MPC,QRVO,XEC,VFC,LUV,TEL,FISV,MKC,DXC,HAS,CINF,NUE,FLIR,HSIC,QCOM,STX,WAT,WY,PEP,EA,HCA,NWL,CB,JNJ,ROP,IT,F,HBAN,AMD,KMX,PEG,MSFT,NTAP,SO,GM,CLX,GD,AMGN,PH,LIN,NKTR,AVB,VRSK,MCHP,CAT,LRCX,EW,FL,IPGP,ROK,CCI,LMT,LNT,BWA,PG,GOOGL,CAG,CRM,GPS,AME,NFLX,TRV,TMK,COTY,WU,HOG,ULTA,MO,WCG,O,MNST,APA,ABBV,MA,FBHS,D,NSC,COST,ZBH,MGM,ANTM,SWK,ECL,DLR,APC,HD,CMS,EIX,ED,RE,V,CTXS,TIF,APH,EMR,VNO,SCG,BK,MSCI,HES,CMCSA,VIAB,KLAC,NRG,DGX,NVDA,EMN,SYK,MYL,AES,IPG,SBAC,LYB,HFC,TRIP,WBA,IBM,BR,ALB,MOS,NWS,BMY,FTI,IR,MAS,DIS,AVGO,TROW,AEP,HIG,GS,C,UHS,UNP,PFG,HST,SNPS,MHK,HBI,BEN,FMC,BSX,WYNN,IFF,ADBE,ARE,KEYS,UAA,NBL,ANSS,PWR,DUK,ZION,AZO,BAC,ADSK,CTAS,CNC,PSA,PCAR,BDX,FFIV,MU,MDT,FOX,TJX,KORS,NI,COP,SPGI,ALK,RHI,PNW,ORCL,TTWO,BF-B,DFS,SLB,STT,APTV,TXN,UAL,MET,AET,A,EL,HP,FTV,EXPE,RF,FLS,ITW,GIS,NDAQ,GOOG,IVZ,XLNX,HSY,GE,EXPD,ETR,URI,IRM,VAR,CHRW,MDLZ,CAH,JEC,CBRE,ATVI,DWDP,PRU,AVY,TAP,DG,AFL,DE,JCI,CDNS,UA,EQR,CSCO,ALL,LNC,BBY,INTU,AOS,EXR,MCD,CMA,NEE
2017-01-01,1.0,0.9090909090909091,,,0.0,,1.0,,1.0,,0.0,,,0.0,1.0,1.0,,,1.0,1.0,1.0,,,1.0,,1.0,1.0,1.0,1.0,,,1.0,,,0.0,1.0,,,,,,,,1.0,,1.0,1.0,,,1.0,1.0,,0.8947368421052632,,,1.0,0.75,0.0,,0.4,1.0,,0.9315068493150684,1.0,0.84,1.0,1.0,1.0,,0.9444444444444444,,0.9206349206349206,1.0,,1.0,,1.0,1.0,,,,,,0.0,1.0,,,0.0,,,1.0,0.0,,,,0.5,0.0,,1.0,,1.0,1.0,1.0,1.0,,,,0.6206896551724138,,,0.96,,,1.0,,,1.0,,,0.0,1.0,1.0,,,1.0,0.8571428571428571,0.0,,0.6,0.75,,,0.9444444444444444,,,,,,1.0,1.0,1.0,0.0,1.0,1.0,0.7419354838709677,0.5,1.0,1.0,,1.0,1.0,0.6666666666666666,,0.5,1.0,,1.0,,1.0,1.0,0.8846153846153846,0.8360655737704918,,0.11904761904761904,,,1.0,1.0,0.8235294117647058,1.0,1.0,,1.0,0.8333333333333334,,,1.0,,,1.0,,1.0,1.0,1.0,,,1.0,,1.0,,0.0,,,,,1.0,0.9090909090909091,1.0,1.0,,0.8421052631578947,,,,0.7777777777777778,1.0,1.0,,,1.0,1.0,,1.0,1.0,,1.0,,1.0,0.4,1.0,1.0,,,1.0,,,,,1.0,,,1.0,0.8333333333333334,1.0,1.0,,1.0,0.8181818181818182,1.0,,1.0,1.0,1.0,,,0.0,,,,,1.0,1.0,,1.0,1.0,0.9583333333333334,0.75,1.0,1.0,,1.0,,1.0,0.5,,1.0,,1.0,,,,1.0,,0.0,0.0,1.0,,,1.0,,0.8,,1.0,,,1.0,,,,0.5,1.0,,,1.0,0.9090909090909091,,0.8571428571428571,0.85,1.0,0.9032258064516129,0.9230769230769231,,0.9210526315789473,,1.0,1.0,,1.0,1.0,1.0,,0.6666666666666666,,,1.0,0.8536585365853658,,0.8947368421052632,,,1.0,,1.0,,1.0,1.0,0.7272727272727273,,0.8,1.0,0.8333333333333334,0.96875,,,,1.0,,,1.0,,0.6818181818181818,1.0,0.6666666666666666,0.3333333333333333,1.0,,1.0,1.0,1.0,,1.0,,,,0.5,,0.75,1.0,,1.0,,0.8214285714285714,,,1.0,,1.0,,,0.0,,1.0,,1.0,,,0.9787234042553191,,1.0,1.0,,,,,1.0,0.75,1.0,0.9148936170212766,,,1.0,0.8666666666666667,0.9565217391304348,0.6666666666666666,1.0,,0.9047619047619048,1.0,1.0,1.0,,1.0,0.75,,0.7142857142857143,,,,1.0,,1.0,,,1.0,,1.0,1.0,,1.0,,,0.5,1.0,1.0,1.0,0.7692307692307693,1.0,,1.0,1.0,1.0,0.75,,0.8,1.0,0.639344262295082,0.0,1.0,,1.0,1.0,1.0,0.0,,1.0,0.0,0.0,1.0,,,,1.0,1.0,1.0,1.0,0.9230769230769231,,,1.0,0.0,,,1.0,0.0,,0.9782608695652174,,,,0.9523809523809523,,1.0,,1.0,0.0,,0.5,0.0,,,1.0,,1.0,1.0,1.0,0.0,0.8113207547169812,0.0,,,0.8,,1.0,1.0,1.0,1.0,1.0,1.0,0.6666666666666666,0.9285714285714286,1.0,1.0
2017-01-02,1.0,0.8666666666666667,1.0,,1.0,1.0,,1.0,,,0.6666666666666666,1.0,,1.0,1.0,1.0,,0.0,1.0,1.0,1.0,1.0,0.5,1.0,,1.0,,1.0,1.0,1.0,,1.0,1.0,1.0,,,1.0,1.0,1.0,,1.0,,1.0,0.5,,1.0,,,,1.0,0.0,,1.0,0.6,1.0,1.0,0.6896551724137931,,,0.9411764705882353,0.8666666666666667,,0.8524590163934426,0.8333333333333334,0.7659574468085106,0.5,1.0,0.7272727272727273,,0.8846153846153846,,0.8536585365853658,1.0,1.0,1.0,,,0.9090909090909091,0.5,1.0,,1.0,,1.0,1.0,0.0,,1.0,0.8333333333333334,1.0,1.0,1.0,1.0,1.0,,0.75,0.6666666666666666,,0.5,0.0,0.9473684210526315,1.0,1.0,1.0,,,0.0,0.5555555555555556,1.0,1.0,0.9473684210526315,1.0,,1.0,,,1.0,,1.0,,1.0,1.0,1.0,,1.0,0.868421052631579,0.0,0.8571428571428571,1.0,1.0,1.0,1.0,1.0,1.0,1.0,1.0,,1.0,1.0,1.0,1.0,,1.0,1.0,0.7169811320754716,0.8,1.0,0.8,,0.9230769230769231,1.0,0.15384615384615385,,,1.0,1.0,0.3333333333333333,,,,0.8461538461538461,0.8360655737704918,,0.5606060606060606,,0.0,1.0,1.0,1.0,1.0,1.0,1.0,0.875,0.9411764705882353,,,1.0,,1.0,1.0,,,0.6666666666666666,1.0,,,1.0,1.0,,,1.0,,1.0,1.0,,1.0,0.75,1.0,1.0,,0.7291666666666666,1.0,,1.0,0.8035714285714286,,0.75,,0.0,1.0,0.3333333333333333,1.0,,1.0,1.0,1.0,1.0,1.0,1.0,1.0,,,,1.0,,,,,,,1.0,1.0,0.7959183673469388,1.0,,,1.0,0.7777777777777778,1.0,1.0,1.0,0.0,,,,,,1.0,1.0,,1.0,0.6666666666666666,,1.0,1.0,0.8823529411764706,0.6428571428571429,1.0,0.0,,,1.0,0.8333333333333334,1.0,,,1.0,0.8571428571428571,0.4,,,1.0,0.5,,1.0,1.0,,1.0,0.5,,1.0,,1.0,0.5,1.0,0.9393939393939394,1.0,1.0,1.0,0.5,1.0,,1.0,1.0,0.9,,0.75,0.8666666666666667,1.0,0.8070175438596491,1.0,,0.95,1.0,1.0,0.8888888888888888,,1.0,1.0,1.0,1.0,0.0,,,,0.8928571428571429,1.0,0.6779661016949152,,,,,1.0,,1.0,0.8333333333333334,0.8571428571428571,,1.0,0.75,1.0,0.9512195121951219,1.0,,1.0,1.0,,1.0,1.0,,0.64,1.0,1.0,1.0,0.75,,0.8,0.6666666666666666,0.7,,0.8,,0.0,,1.0,,1.0,1.0,,1.0,,0.8301886792452831,1.0,,1.0,0.6666666666666666,,,0.9,,1.0,1.0,1.0,,,1.0,0.875,,1.0,0.8461538461538461,,,1.0,,0.0,0.8333333333333334,0.875,0.8809523809523809,,1.0,1.0,0.6,1.0,,1.0,,0.8461538461538461,1.0,1.0,0.0,1.0,0.8,0.8421052631578947,,0.5,1.0,,,,1.0,1.0,,1.0,0.875,,0.875,1.0,1.0,0.25,1.0,1.0,0.875,1.0,1.0,,0.8235294117647058,,,1.0,1.0,,1.0,1.0,0.8666666666666667,1.0,0.5967741935483871,1.0,1.0,,1.0,,1.0,,,0.8461538461538461,1.0,0.0,1.0,1.0,,,1.0,1.0,1.0,,1.0,0.5,,1.0,1.0,1.0,1.0,0.0,1.0,,0.9113924050632911,,,0.0,0.95,,,1.0,,1.0,,1.0,1.0,,,1.0,,1.0,1.0,1.0,,0.8285714285714286,0.9375,,0.5,0.16666666666666666,0.0,0.9444444444444444,1.0,,1.0,,,1.0,0.9411764705882353,1.0,
2017-01-03,0.8947368421052632,0.6428571428571429,1.0,,1.0,,1.0,1.0,1.0,,0.3333333333333333,1.0,,0.875,0.5,0.8333333333333334,1.0,1.0,1.0,1.0,0.5555555555555556,1.0,1.0,0.8,,1.0,1.0,1.0,1.0,0.875,0.5,0.75,1.0,1.0,1.0,,,1.0,1.0,0.3333333333333333,1.0,1.0,,0.0,,0.8,1.0,1.0,1.0,1.0,1.0,1.0,0.875,1.0,1.0,0.75,0.4067796610169492,0.6,,0.696969696969697,0.7619047619047619,1.0,0.896551724137931,1.0,0.8888888888888888,1.0,1.0,0.7894736842105263,1.0,0.9887640449438202,1.0,0.7272727272727273,1.0,0.6363636363636364,0.9333333333333333,,,1.0,1.0,1.0,1.0,1.0,1.0,0.8181818181818182,0.8,1.0,,1.0,0.5555555555555556,1.0,1.0,1.0,1.0,0.8571428571428571,1.0,0.625,0.0,1.0,1.0,1.0,0.8095238095238095,1.0,0.9344262295081968,1.0,1.0,,,0.6666666666666666,1.0,1.0,0.925,1.0,,0.875,1.0,0.14285714285714285,0.8,,1.0,1.0,0.5,1.0,1.0,,1.0,0.8795180722891566,0.6666666666666666,1.0,0.8,1.0,1.0,,0.9354838709677419,1.0,0.6666666666666666,,,0.0,1.0,1.0,1.0,,1.0,1.0,0.8108108108108109,1.0,0.8,1.0,1.0,0.8823529411764706,1.0,0.7272727272727273,1.0,0.6666666666666666,1.0,0.45454545454545453,0.5,0.0,,1.0,1.0,0.9016393442622951,1.0,0.7101449275362319,1.0,0.75,,1.0,0.9285714285714286,0.7,1.0,,1.0,0.9166666666666666,,1.0,0.4,0.5,,1.0,,0.5,1.0,1.0,1.0,1.0,,0.8461538461538461,0.7142857142857143,1.0,1.0,1.0,0.7777777777777778,0.5714285714285714,,0.9,0.8928571428571429,0.7727272727272727,0.8936170212765957,0.6666666666666666,0.75,1.0,1.0,0.9,0.9019607843137255,0.5,0.6666666666666666,,,0.9444444444444444,1.0,1.0,0.6666666666666666,,1.0,1.0,0.8333333333333334,0.95,0.8,0.6666666666666666,1.0,1.0,0.0,0.8333333333333334,,,,1.0,1.0,,1.0,1.0,0.7931034482758621,1.0,0.6666666666666666,,0.6666666666666666,0.9354838709677419,0.8333333333333334,1.0,0.84375,1.0,1.0,1.0,1.0,,1.0,1.0,1.0,,1.0,0.9565217391304348,0.4444444444444444,1.0,1.0,0.7948717948717948,0.7272727272727273,0.5,1.0,1.0,0.5,1.0,0.9375,0.8,0.5,,,0.75,0.7857142857142857,1.0,1.0,0.9215686274509803,1.0,1.0,1.0,0.75,,,1.0,,1.0,1.0,1.0,0.0,1.0,0.9696969696969697,1.0,1.0,1.0,0.42857142857142855,0.8333333333333334,1.0,1.0,0.0,0.9142857142857143,1.0,0.5,0.9375,1.0,0.8,1.0,,0.9550561797752809,,1.0,0.863013698630137,1.0,0.8,0.75,,1.0,,1.0,,,0.5833333333333334,,0.7368421052631579,,1.0,1.0,1.0,0.9285714285714286,1.0,1.0,0.75,0.8461538461538461,1.0,0.8695652173913043,0.7,0.9375,0.9333333333333333,1.0,1.0,1.0,1.0,1.0,1.0,0.8571428571428571,1.0,0.7,1.0,0.875,0.85,0.875,,0.5,0.9090909090909091,0.6666666666666666,1.0,0.8666666666666667,1.0,1.0,,1.0,1.0,0.8461538461538461,1.0,,0.75,,0.8260869565217391,1.0,1.0,,0.0,1.0,,0.9333333333333333,,1.0,0.6842105263157895,0.25,0.5,,1.0,0.8695652173913043,1.0,1.0,0.76,,,1.0,0.6666666666666666,1.0,1.0,1.0,0.6875,1.0,1.0,1.0,0.6666666666666666,0.9444444444444444,1.0,1.0,,0.8656716417910447,1.0,1.0,1.0,1.0,0.7894736842105263,0.76,,0.9166666666666666,1.0,,1.0,,0.4,1.0,1.0,1.0,0.9230769230769231,,1.0,1.0,1.0,0.7142857142857143,1.0,1.0,1.0,0.7647058823529411,1.0,0.75,0.9,1.0,,1.0,1.0,0.8181818181818182,1.0,1.0,0.75,0.6774193548387096,0.7272727272727273,1.0,1.0,,0.9090909090909091,1.0,0.6666666666666666,1.0,,1.0,1.0,,,1.0,1.0,,0.6,1.0,0.9411764705882353,1.0,1.0,,,,1.0,1.0,0.5,,0.75,1.0,0.9285714285714286,,1.0,1.0,0.9411764705882353,1.0,1.0,1.0,1.0,0.0,1.0,1.0,1.0,0.25,,1.0,,1.0,1.0,1.0,1.0,0.7419354838709677,0.6470588235294118,0.0,1.0,0.7142857142857143,,0.9285714285714286,1.0,1.0,0.975609756097561,1.0,1.0,1.0,0.873015873015873,1.0,1.0
2017-01-04,0.8823529411764706,0.7083333333333334,0.3870967741935484,,,0.0,1.0,1.0,1.0,,1.0,1.0,0.6,1.0,1.0,0.8666666666666667,1.0,1.0,1.0,0.8947368421052632,1.0,1.0,1.0,1.0,1.0,1.0,1.0,0.8823529411764706,0.6666666666666666,,0.0,0.9285714285714286,0.75,0.95,0.0,0.6,1.0,,1.0,,1.0,0.8,0.9545454545454546,0.75,1.0,0.6666666666666666,0.6666666666666666,1.0,0.5,1.0,0.0,1.0,0.967741935483871,0.5,1.0,0.9583333333333334,0.5384615384615384,1.0,1.0,0.7872340425531915,0.5,1.0,0.8615384615384616,0.8666666666666667,0.9090909090909091,1.0,0.75,0.7931034482758621,1.0,1.0,1.0,0.78,1.0,0.8888888888888888,1.0,,1.0,0.75,0.25,1.0,1.0,,1.0,0.7272727272727273,0.8235294117647058,1.0,1.0,1.0,0.875,0.0,1.0,1.0,1.0,1.0,1.0,0.8571428571428571,0.6666666666666666,1.0,0.75,1.0,0.6153846153846154,1.0,0.9523809523809523,1.0,1.0,1.0,1.0,0.6481481481481481,,1.0,0.9753086419753086,1.0,,1.0,1.0,,0.5714285714285714,1.0,1.0,1.0,0.75,0.75,0.6666666666666666,1.0,1.0,0.9473684210526315,1.0,1.0,0.6666666666666666,1.0,0.0,1.0,0.9,1.0,1.0,0.0,,1.0,0.8333333333333334,1.0,1.0,,0.8333333333333334,1.0,0.6779661016949152,1.0,1.0,1.0,0.5,0.8461538461538461,,0.6938775510204082,1.0,1.0,0.9444444444444444,0.0,0.2564102564102564,1.0,,1.0,0.8823529411764706,0.847457627118644,1.0,0.875,0.7272727272727273,1.0,1.0,,0.9259259259259259,0.9166666666666666,0.3333333333333333,1.0,0.7857142857142857,0.94,,1.0,0.8333333333333334,1.0,1.0,1.0,1.0,0.4,1.0,1.0,1.0,1.0,1.0,1.0,1.0,0.75,,,0.8536585365853658,0.3333333333333333,1.0,0.9583333333333334,0.8607594936708861,0.9090909090909091,0.9019607843137255,1.0,0.8333333333333334,1.0,1.0,0.8461538461538461,0.7166666666666667,0.5,0.6666666666666666,,1.0,0.7777777777777778,0.9827586206896551,0.896551724137931,0.7692307692307693,1.0,1.0,1.0,0.75,0.625,0.9230769230769231,0.75,1.0,,1.0,0.9285714285714286,1.0,,1.0,,,1.0,1.0,1.0,0.9523809523809523,0.8571428571428571,0.8,1.0,0.4444444444444444,0.8888888888888888,0.7777777777777778,,0.7857142857142857,0.8571428571428571,1.0,1.0,0.5,,,1.0,1.0,,1.0,1.0,0.5,1.0,1.0,0.8064516129032258,0.8571428571428571,0.25,1.0,1.0,1.0,1.0,0.9047619047619048,0.6666666666666666,,1.0,1.0,0.8,0.8333333333333334,0.8,1.0,0.8695652173913043,0.875,1.0,0.0,0.88,1.0,1.0,1.0,,0.8571428571428571,1.0,0.5,1.0,1.0,1.0,1.0,1.0,1.0,0.75,0.9807692307692307,1.0,,1.0,0.9423076923076923,,1.0,0.9577464788732394,1.0,0.7868852459016393,1.0,,0.8987341772151899,1.0,1.0,0.9272727272727272,0.6666666666666666,1.0,0.8461538461538461,1.0,,1.0,0.0,,,0.7272727272727273,1.0,0.8085106382978723,,,1.0,1.0,1.0,1.0,1.0,0.8888888888888888,0.6923076923076923,1.0,0.8387096774193549,0.9411764705882353,0.6666666666666666,0.7894736842105263,1.0,1.0,1.0,1.0,1.0,1.0,1.0,1.0,0.8095238095238095,0.6666666666666666,0.6666666666666666,0.8947368421052632,0.8421052631578947,0.0,0.8,0.75,1.0,1.0,1.0,0.8,,1.0,1.0,0.8888888888888888,0.8571428571428571,1.0,,0.75,,0.8541666666666666,0.6666666666666666,1.0,1.0,0.0,0.8,,1.0,1.0,1.0,0.9811320754716981,,0.8,1.0,,0.8169014084507042,1.0,0.5,0.625,1.0,1.0,,1.0,1.0,0.8,0.5882352941176471,0.8275862068965517,1.0,0.9285714285714286,1.0,0.75,1.0,1.0,,1.0,0.8846153846153846,1.0,0.9285714285714286,0.6666666666666666,1.0,0.8478260869565217,0.9111111111111111,1.0,0.8571428571428571,1.0,0.5,1.0,1.0,1.0,1.0,1.0,1.0,0.8888888888888888,1.0,0.9,0.75,1.0,0.8666666666666667,1.0,1.0,1.0,0.95,1.0,1.0,0.8235294117647058,1.0,1.0,0.7142857142857143,1.0,,0.6666666666666666,,0.75,0.8484848484848485,0.6491228070175439,1.0,0.875,,0.7142857142857143,1.0,0.875,1.0,,0.7857142857142857,0.8,,1.0,1.0,0.8823529411764706,,1.0,0.7619047619047619,1.0,1.0,0.9230769230769231,0.0,1.0,1.0,1.0,0.6666666666666666,,,0.8,0.4,0.967032967032967,1.0,0.6666666666666666,1.0,1.0,,1.0,1.0,1.0,1.0,1.0,1.0,1.0,1.0,,1.0,,1.0,1.0,1.0,0.3333333333333333,0.7941176470588235,0.8260869565217391,0.6666666666666666,1.0,0.8,0.0,0.9,0.96,1.0,0.9655172413793104,1.0,1.0,1.0,0.8863636363636364,0.9230769230769231,1.0
2017-01-05,0.9166666666666666,0.9523809523809523,0.6417910447761194,,1.0,0.5714285714285714,1.0,,1.0,,1.0,0.5,1.0,0.8260869565217391,0.967741935483871,0.9629629629629629,,0.0,1.0,1.0,0.6666666666666666,1.0,,1.0,1.0,1.0,,1.0,0.5,1.0,1.0,0.95,1.0,1.0,1.0,1.0,1.0,0.0,1.0,1.0,0.25,0.5,0.6666666666666666,0.0,0.8888888888888888,0.9333333333333333,1.0,1.0,1.0,1.0,0.75,1.0,0.8928571428571429,1.0,0.6666666666666666,0.7857142857142857,0.5423728813559322,1.0,,0.7419354838709677,0.5,1.0,0.9848484848484849,1.0,0.8979591836734694,,0.9285714285714286,0.95,,0.9222222222222223,1.0,0.7719298245614035,1.0,0.9142857142857143,1.0,,0.5,0.8571428571428571,1.0,1.0,1.0,1.0,,0.9166666666666666,0.7692307692307693,1.0,,1.0,0.8695652173913043,,0.5,1.0,1.0,,1.0,0.9230769230769231,1.0,,1.0,0.8333333333333334,0.7333333333333333,0.9375,0.975,0.0,1.0,1.0,0.875,0.5555555555555556,,1.0,0.9076923076923077,1.0,1.0,1.0,1.0,,1.0,1.0,1.0,1.0,1.0,1.0,1.0,1.0,1.0,0.9583333333333334,1.0,1.0,0.5,0.5,1.0,0.6666666666666666,0.953125,1.0,0.4444444444444444,,1.0,,0.75,1.0,0.3333333333333333,1.0,1.0,0.6666666666666666,0.7111111111111111,1.0,1.0,1.0,1.0,0.375,1.0,0.6666666666666666,1.0,,1.0,1.0,0.3,,,0.5869565217391305,0.8709677419354839,0.8392857142857143,0.2,0.5961538461538461,0.5555555555555556,0.8,1.0,1.0,0.84,1.0,1.0,,0.8461538461538461,0.7536231884057971,1.0,1.0,0.0,0.75,0.6666666666666666,1.0,1.0,1.0,1.0,1.0,,1.0,1.0,1.0,,1.0,,1.0,0.8181818181818182,1.0,,0.6458333333333334,0.7105263157894737,0.896551724137931,0.975,1.0,0.8307692307692308,1.0,1.0,1.0,0.7192982456140351,0.5,1.0,,1.0,0.9655172413793104,1.0,1.0,0.6363636363636364,1.0,1.0,1.0,1.0,1.0,0.8888888888888888,1.0,1.0,0.6666666666666666,1.0,0.9090909090909091,1.0,,,,1.0,1.0,1.0,1.0,0.782608695652174,0.6666666666666666,1.0,1.0,0.5357142857142857,0.8260869565217391,1.0,1.0,0.8620689655172413,1.0,0.8571428571428571,1.0,0.5,,1.0,0.5,0.8,,0.5714285714285714,0.90625,1.0,1.0,1.0,0.7454545454545455,0.6153846153846154,0.6,1.0,1.0,1.0,0.9,0.7931034482758621,1.0,,,1.0,0.6363636363636364,0.8571428571428571,0.9,1.0,0.9375,,,1.0,0.9607843137254902,0.0,1.0,1.0,,0.9166666666666666,1.0,1.0,1.0,,0.9574468085106383,0.8181818181818182,1.0,1.0,0.8571428571428571,0.9555555555555556,1.0,1.0,0.5,0.9347826086956522,0.0,0.7272727272727273,0.8289473684210527,1.0,0.8412698412698413,0.8,1.0,0.9574468085106383,,1.0,0.8823529411764706,1.0,1.0,0.8360655737704918,1.0,1.0,,1.0,,,0.8275862068965517,0.5,0.75,0.6666666666666666,1.0,1.0,1.0,0.9545454545454546,,1.0,1.0,0.7857142857142857,0.0,0.9459459459459459,0.6904761904761905,0.75,0.92,0.7857142857142857,1.0,1.0,1.0,1.0,1.0,1.0,1.0,0.68,0.8571428571428571,1.0,0.75,0.9318181818181818,,0.3333333333333333,1.0,0.8888888888888888,1.0,0.7777777777777778,0.6666666666666666,0.7717391304347826,,1.0,1.0,0.5714285714285714,1.0,1.0,1.0,1.0,0.7142857142857143,0.5,,1.0,0.8333333333333334,,,1.0,0.5,0.8888888888888888,0.972972972972973,1.0,1.0,1.0,1.0,0.8857142857142857,1.0,1.0,0.8421052631578947,1.0,,0.75,1.0,1.0,1.0,0.8823529411764706,0.8918918918918919,,0.75,1.0,0.7916666666666666,1.0,,1.0,,0.8181818181818182,0.75,1.0,,,0.6818181818181818,0.8372093023255814,1.0,0.6666666666666666,1.0,0.6666666666666666,1.0,1.0,1.0,,0.75,1.0,1.0,,1.0,0.8571428571428571,1.0,0.8235294117647058,0.6666666666666666,1.0,1.0,1.0,1.0,1.0,0.8448275862068966,1.0,,0.75,0.6666666666666666,1.0,1.0,1.0,0.9,1.0,0.5882352941176471,0.45454545454545453,0.7142857142857143,,1.0,1.0,0.7777777777777778,1.0,,1.0,1.0,,1.0,1.0,1.0,,1.0,0.875,1.0,0.8,0.8,1.0,1.0,1.0,1.0,1.0,1.0,1.0,0.8333333333333334,1.0,0.9506172839506173,1.0,1.0,0.3333333333333333,0.9032258064516129,,1.0,0.9333333333333333,1.0,0.6666666666666666,1.0,0.5,0.8,1.0,,0.875,,1.0,,1.0,1.0,0.6226415094339622,1.0,0.8,1.0,0.76,1.0,1.0,1.0,1.0,0.9285714285714286,,,1.0,0.9166666666666666,1.0,1.0
2017-01-06,1.0,0.7906976744186046,0.6086956521739131,,1.0,0.125,1.0,1.0,1.0,,1.0,1.0,1.0,0.9354838709677419,1.0,0.8484848484848485,,,0.8333333333333334,0.5,1.0,1.0,1.0,1.0,1.0,1.0,1.0,0.9090909090909091,0.75,1.0,,0.8620689655172413,0.0,0.9583333333333334,,1.0,1.0,,1.0,1.0,1.0,1.0,1.0,,,1.0,1.0,1.0,1.0,,0.75,1.0,0.8936170212765957,,1.0,0.7714285714285715,0.43333333333333335,,,0.6071428571428571,0.6666666666666666,0.6,0.8225806451612904,1.0,0.864406779661017,1.0,0.9375,0.9629629629629629,1.0,0.948051948051948,0.8571428571428571,0.7551020408163265,1.0,1.0,0.8888888888888888,,1.0,0.9285714285714286,1.0,0.6666666666666666,0.7142857142857143,,,0.8947368421052632,0.8181818181818182,1.0,0.6666666666666666,1.0,0.625,0.75,1.0,1.0,,1.0,,0.9285714285714286,0.0,0.5,0.6666666666666666,0.6,0.9285714285714286,0.9047619047619048,0.8333333333333334,,,,1.0,0.6,1.0,1.0,0.9310344827586207,1.0,1.0,1.0,1.0,,0.8888888888888888,1.0,0.6666666666666666,0.6666666666666666,1.0,0.8571428571428571,1.0,,1.0,0.96875,1.0,1.0,1.0,1.0,1.0,,0.9354838709677419,0.6666666666666666,1.0,1.0,,1.0,1.0,1.0,0.8,1.0,1.0,1.0,0.7454545454545455,1.0,1.0,1.0,0.75,0.9130434782608695,1.0,0.6851851851851852,,1.0,1.0,0.5,0.2222222222222222,1.0,,0.8333333333333334,1.0,0.8923076923076924,1.0,0.6981132075471698,1.0,1.0,0.0,1.0,1.0,1.0,0.875,1.0,1.0,0.9454545454545454,1.0,1.0,1.0,1.0,1.0,1.0,0.6666666666666666,0.5,1.0,1.0,1.0,,1.0,1.0,1.0,1.0,,1.0,0.8695652173913043,1.0,,0.7058823529411765,0.85,0.8888888888888888,0.9722222222222222,1.0,0.8947368421052632,1.0,1.0,1.0,0.8412698412698413,1.0,1.0,,1.0,1.0,1.0,1.0,1.0,1.0,1.0,1.0,1.0,1.0,0.75,0.3333333333333333,,0.8888888888888888,1.0,0.6,,,,1.0,0.5,1.0,1.0,0.5,0.9069767441860465,1.0,,1.0,0.7222222222222222,0.9285714285714286,1.0,1.0,0.7741935483870968,0.7857142857142857,1.0,1.0,0.6,,,1.0,1.0,,1.0,1.0,1.0,0.7142857142857143,1.0,0.9016393442622951,0.7647058823529411,1.0,1.0,1.0,1.0,1.0,0.6111111111111112,0.6666666666666666,1.0,1.0,,0.9090909090909091,0.9,1.0,1.0,1.0,1.0,,0.6666666666666666,0.9629629629629629,1.0,1.0,1.0,,1.0,,,1.0,1.0,0.8125,0.8571428571428571,1.0,1.0,0.5,0.9636363636363636,1.0,0.8,1.0,0.9107142857142857,1.0,0.8518518518518519,0.975,1.0,0.9166666666666666,0.8181818181818182,,0.972972972972973,,1.0,0.9130434782608695,1.0,1.0,0.8571428571428571,,1.0,0.5,,1.0,0.5,0.8387096774193549,,0.8958333333333334,1.0,,,,0.7777777777777778,,,1.0,0.8378378378378378,1.0,0.6923076923076923,0.8571428571428571,1.0,0.9032258064516129,0.8,1.0,1.0,1.0,0.5,0.6,0.8947368421052632,1.0,0.6666666666666666,0.7142857142857143,1.0,1.0,0.95,,1.0,1.0,0.875,1.0,0.8571428571428571,1.0,0.5714285714285714,,0.8333333333333334,1.0,0.7692307692307693,1.0,,0.8571428571428571,1.0,0.74,1.0,,1.0,1.0,1.0,1.0,1.0,,1.0,0.96,1.0,1.0,0.8,1.0,0.9078947368421053,,0.75,0.6666666666666666,,1.0,1.0,1.0,0.0,1.0,0.8,0.9344262295081968,,1.0,1.0,0.6857142857142857,0.855072463768116,1.0,0.8333333333333334,0.0,0.9508196721311475,0.5,,1.0,1.0,0.8043478260869565,0.9130434782608695,0.0,0.5714285714285714,1.0,1.0,,,1.0,1.0,1.0,1.0,0.875,0.5,0.9259259259259259,0.8,,0.6666666666666666,1.0,1.0,1.0,0.9666666666666667,1.0,,0.7407407407407407,1.0,0.6666666666666666,1.0,0.0,0.6,1.0,1.0,0.9166666666666666,0.9333333333333333,0.6428571428571429,0.0,,,1.0,1.0,1.0,1.0,1.0,0.7894736842105263,,,0.5833333333333334,0.8181818181818182,1.0,,1.0,0.9090909090909091,1.0,1.0,0.9,0.5,1.0,1.0,0.8636363636363636,1.0,1.0,,1.0,0.8333333333333334,0.9178082191780822,1.0,1.0,0.9333333333333333,1.0,1.0,1.0,0.9230769230769231,0.0,1.0,1.0,1.0,1.0,1.0,,1.0,,1.0,1.0,1.0,,0.75,1.0,1.0,1.0,0.9259259259259259,,0.9428571428571428,0.9090909090909091,,1.0,1.0,1.0,1.0,0.8648648648648649,1.0,1.0
2017-01-07,0.75,0.5,0.5384615384615384,,1.0,0.0,,1.0,1.0,,0.5,1.0,,0.9375,1.0,1.0,1.0,,0.6,1.0,0.6666666666666666,,,,,,,0.8,,1.0,1.0,0.7647058823529411,0.5,1.0,0.75,1.0,,,1.0,1.0,1.0,1.0,,1.0,,1.0,1.0,1.0,1.0,,1.0,0.5,0.8055555555555556,0.75,,0.6896551724137931,0.4489795918367347,1.0,,0.5,1.0,0.0,0.9305555555555556,1.0,0.8235294117647058,0.6666666666666666,0.8333333333333334,1.0,1.0,1.0,1.0,0.7169811320754716,1.0,1.0,1.0,,1.0,1.0,1.0,,1.0,,,0.9375,0.9285714285714286,,,1.0,1.0,1.0,1.0,,1.0,,,1.0,1.0,,0.3333333333333333,,0.6923076923076923,1.0,0.875,,,1.0,0.5,0.5818181818181818,1.0,1.0,0.8461538461538461,1.0,1.0,1.0,1.0,1.0,1.0,,,,1.0,1.0,,,,0.9154929577464789,0.0,1.0,0.5,,1.0,1.0,1.0,1.0,1.0,,1.0,0.0,1.0,1.0,1.0,1.0,,,0.6666666666666666,0.3333333333333333,,1.0,1.0,0.5,1.0,0.6666666666666666,1.0,1.0,1.0,0.6666666666666666,0.9444444444444444,1.0,,0.25,0.9333333333333333,0.8947368421052632,0.8333333333333334,0.9354838709677419,1.0,0.4666666666666667,,1.0,0.9166666666666666,1.0,1.0,1.0,1.0,0.9090909090909091,1.0,,1.0,1.0,0.0,1.0,,,0.75,,,,1.0,1.0,,1.0,1.0,,0.8181818181818182,1.0,1.0,1.0,0.7555555555555555,0.7333333333333333,1.0,,0.8852459016393442,,0.5,0.75,0.8448275862068966,0.5,,,,0.9285714285714286,0.9090909090909091,1.0,1.0,1.0,1.0,1.0,1.0,1.0,0.875,1.0,1.0,1.0,1.0,1.0,,,,,,,,0.7777777777777778,0.9655172413793104,1.0,1.0,1.0,0.4166666666666667,1.0,1.0,1.0,0.6,1.0,1.0,1.0,,,1.0,1.0,1.0,,,1.0,1.0,1.0,1.0,0.96875,0.8181818181818182,1.0,1.0,1.0,1.0,1.0,0.8823529411764706,,,0.0,1.0,1.0,0.9166666666666666,,1.0,,1.0,,0.5,0.5,1.0,1.0,,,1.0,1.0,1.0,1.0,1.0,0.9285714285714286,1.0,1.0,,0.8333333333333334,0.8461538461538461,,0.6666666666666666,,0.9,,0.8947368421052632,0.9204545454545454,,0.8571428571428571,0.9411764705882353,1.0,0.9770114942528736,,1.0,0.8055555555555556,,1.0,0.8333333333333334,0.7142857142857143,,1.0,0.5,1.0,,0.6363636363636364,1.0,0.8108108108108109,,,1.0,1.0,1.0,1.0,,,0.896551724137931,1.0,0.9,0.6666666666666666,1.0,0.9384615384615385,1.0,,0.5,1.0,1.0,1.0,0.8333333333333334,,0.8235294117647058,,1.0,,0.75,,1.0,,0.9285714285714286,,,1.0,0.6666666666666666,,,1.0,0.75,,,,,0.9393939393939394,1.0,1.0,1.0,1.0,,,1.0,1.0,1.0,1.0,1.0,,1.0,,0.8787878787878788,,1.0,1.0,1.0,1.0,1.0,1.0,0.5,1.0,0.6666666666666666,0.896551724137931,,1.0,,0.7941176470588235,0.8823529411764706,1.0,1.0,,0.8596491228070176,1.0,1.0,1.0,1.0,0.8387096774193549,0.9411764705882353,1.0,1.0,1.0,1.0,1.0,1.0,,1.0,1.0,1.0,1.0,,1.0,1.0,1.0,0.6,,1.0,1.0,1.0,1.0,1.0,0.9210526315789473,1.0,,,1.0,,1.0,1.0,1.0,0.9375,0.6865671641791045,1.0,1.0,1.0,1.0,1.0,1.0,1.0,,1.0,1.0,0.0,1.0,1.0,1.0,,1.0,0.9,1.0,0.0,0.9444444444444444,1.0,1.0,1.0,1.0,,,,,0.0,0.967032967032967,,,,0.9545454545454546,,1.0,1.0,,1.0,,1.0,0.0,1.0,,1.0,,1.0,,1.0,1.0,0.6271186440677966,0.6666666666666666,1.0,1.0,0.9,1.0,0.9285714285714286,0.8181818181818182,1.0,1.0,1.0,,1.0,1.0,0.8333333333333334,1.0
2017-01-08,0.6666666666666666,0.46153846153846156,0.8852459016393442,,1.0,1.0,1.0,,,,,1.0,,1.0,1.0,0.9230769230769231,,,1.0,0.6,,1.0,1.0,,,,1.0,1.0,0.4,1.0,,0.8,1.0,0.9,0.5,,0.0,,,,,1.0,1.0,0.0,,1.0,1.0,0.5,,,,1.0,0.7647058823529411,1.0,1.0,0.375,0.6557377049180327,,,0.625,0.8,,0.9605263157894737,,0.8888888888888888,,0.4,0.8181818181818182,,0.9791666666666666,,0.7307692307692307,0.5,1.0,1.0,,1.0,0.9444444444444444,1.0,,,,1.0,0.3333333333333333,0.8888888888888888,,,,0.0,,1.0,0.0,0.9090909090909091,0.0,,1.0,0.0,,0.6666666666666666,0.0,0.7,1.0,0.9333333333333333,0.3333333333333333,,1.0,,0.6111111111111112,,,0.9444444444444444,,,1.0,1.0,1.0,0.8333333333333334,,1.0,,,1.0,0.5,,1.0,0.9333333333333333,,1.0,1.0,0.0,1.0,,0.9642857142857143,1.0,1.0,,,0.5,1.0,1.0,,1.0,,1.0,0.7222222222222222,0.6666666666666666,1.0,1.0,0.0,1.0,1.0,0.7272727272727273,0.0,1.0,1.0,1.0,1.0,,,0.8,1.0,0.9245283018867925,,0.7017543859649122,1.0,1.0,,0.5,1.0,1.0,1.0,,1.0,0.8148148148148148,1.0,,1.0,0.0,0.5,,1.0,,,0.5,1.0,,,,1.0,1.0,,1.0,1.0,1.0,,1.0,0.8166666666666667,0.8,0.8571428571428571,,0.8103448275862069,,0.8,1.0,0.8166666666666667,1.0,0.6666666666666666,,,0.9444444444444444,,1.0,1.0,1.0,0.8888888888888888,1.0,1.0,0.8571428571428571,0.5,0.5,,,,1.0,,,,,,0.75,,,0.9655172413793104,1.0,,1.0,1.0,1.0,1.0,,0.75,0.75,1.0,1.0,,,0.0,,0.875,,,1.0,1.0,1.0,1.0,0.8857142857142857,1.0,1.0,,1.0,0.5,1.0,1.0,1.0,,1.0,1.0,1.0,1.0,,,1.0,,,,1.0,,,,,1.0,,1.0,1.0,,0.96,1.0,1.0,1.0,0.6666666666666666,1.0,,,1.0,0.96875,,1.0,0.9574468085106383,,0.896551724137931,1.0,,0.9512195121951219,,1.0,1.0,,1.0,0.631578947368421,0.8,,,,,,0.65,0.0,0.9142857142857143,0.0,,,1.0,1.0,,,1.0,0.75,,0.7619047619047619,1.0,1.0,0.9361702127659575,,,1.0,1.0,1.0,1.0,0.6666666666666666,1.0,0.6190476190476191,0.5,1.0,0.3333333333333333,0.75,,1.0,1.0,0.9090909090909091,,1.0,1.0,1.0,1.0,,1.0,0.8,,,0.8,,0.8113207547169812,,1.0,1.0,1.0,,1.0,0.8333333333333334,,1.0,0.96,,,,1.0,0.9761904761904762,1.0,1.0,0.5,1.0,,,,,1.0,1.0,0.9122807017543859,,,1.0,0.6363636363636364,1.0,1.0,0.0,,0.9032258064516129,1.0,0.0,1.0,,0.918918918918919,0.9166666666666666,,,,,,,,1.0,,1.0,0.8,,1.0,1.0,1.0,1.0,1.0,,1.0,1.0,1.0,,0.95,1.0,,1.0,,,0.75,,1.0,1.0,0.6140350877192983,1.0,0.0,,1.0,1.0,1.0,,,0.8333333333333334,,,1.0,1.0,,,1.0,0.7142857142857143,1.0,1.0,0.8888888888888888,1.0,,1.0,1.0,1.0,,1.0,0.5,,0.9886363636363636,,0.0,1.0,0.875,0.0,1.0,1.0,,,,0.75,,1.0,,1.0,,1.0,1.0,1.0,1.0,0.7954545454545454,1.0,1.0,1.0,1.0,,0.9411764705882353,1.0,,1.0,0.6666666666666666,,,1.0,1.0,
2017-01-09,0.9285714285714286,0.7714285714285715,0.8,,0.5,0.25,0.8571428571428571,0.6666666666666666,1.0,,1.0,,0.0,0.8163265306122449,0.75,0.8846153846153846,1.0,,1.0,0.8571428571428571,0.6,0.0,1.0,1.0,0.0,0.8333333333333334,1.0,1.0,1.0,1.0,0.5,0.8913043478260869,0.0,0.6666666666666666,0.8888888888888888,1.0,,,1.0,1.0,1.0,0.6666666666666666,0.5,1.0,1.0,1.0,1.0,1.0,1.0,0.0,,1.0,0.8545454545454545,1.0,1.0,0.7755102040816326,0.6363636363636364,0.0,,0.8333333333333334,0.88,1.0,0.8333333333333334,0.9090909090909091,0.7407407407407407,,1.0,0.8846153846153846,1.0,0.8354430379746836,0.6666666666666666,0.6585365853658537,0.75,1.0,1.0,,0.0,0.9130434782608695,0.5,1.0,1.0,1.0,,0.7924528301886793,0.9523809523809523,,,1.0,0.6666666666666666,0.6,0.4666666666666667,1.0,0.4,1.0,,0.9302325581395349,,,0.25,0.5,0.9,1.0,0.8125,1.0,,1.0,0.4,0.6153846153846154,,0.8571428571428571,0.8666666666666667,1.0,1.0,1.0,1.0,0.6666666666666666,1.0,1.0,1.0,1.0,1.0,1.0,0.5,0.0,1.0,0.890625,0.6666666666666666,1.0,0.7142857142857143,1.0,,1.0,0.8048780487804879,1.0,1.0,,,0.0,0.8,1.0,0.8571428571428571,1.0,1.0,,0.7916666666666666,0.7777777777777778,1.0,,1.0,0.9090909090909091,,0.6875,,1.0,0.6666666666666666,0.875,0.5,0.6666666666666666,,0.75,0.9180327868852459,0.8666666666666667,1.0,0.6415094339622641,0.75,0.75,,0.65,0.9285714285714286,1.0,1.0,1.0,0.8,0.9310344827586207,1.0,1.0,0.8333333333333334,0.75,,1.0,0.8,1.0,,1.0,1.0,,0.9,1.0,1.0,1.0,,1.0,0.8947368421052632,0.75,1.0,0.6666666666666666,0.8571428571428571,0.8076923076923077,0.8813559322033898,,0.8245614035087719,,0.75,0.9166666666666666,0.8387096774193549,,1.0,,0.0,0.96,1.0,0.8333333333333334,0.8421052631578947,,1.0,1.0,1.0,0.8947368421052632,0.75,1.0,1.0,1.0,1.0,0.9142857142857143,1.0,0.5,,,1.0,,1.0,0.75,0.7966101694915254,0.75,0.6666666666666666,0.0,0.9375,0.9024390243902439,1.0,,0.8823529411764706,0.75,0.75,1.0,,,1.0,1.0,1.0,,1.0,1.0,1.0,1.0,1.0,0.8367346938775511,0.7368421052631579,0.5,0.8,0.5,1.0,0.8888888888888888,1.0,1.0,1.0,0.9722222222222222,,0.9090909090909091,1.0,,1.0,1.0,1.0,,0.5,1.0,1.0,1.0,0.0,,1.0,1.0,1.0,,1.0,0.775,0.3333333333333333,,1.0,0.7857142857142857,0.9512195121951219,0.8571428571428571,0.3333333333333333,1.0,0.9607843137254902,0.0,0.96,0.863013698630137,1.0,0.8070175438596491,0.9473684210526315,,0.9550561797752809,,0.9333333333333333,0.9142857142857143,0.875,1.0,0.8541666666666666,,1.0,1.0,1.0,,1.0,0.92,0.5,0.7592592592592593,1.0,0.5,1.0,1.0,0.9545454545454546,,1.0,0.7037037037037037,0.8076923076923077,0.875,1.0,0.8,0.0,0.8,1.0,,1.0,0.5,1.0,1.0,1.0,1.0,0.65,0.42857142857142855,0.5,0.9375,1.0,0.5,0.375,1.0,0.5,1.0,1.0,0.8,0.7333333333333333,1.0,0.5,1.0,0.8421052631578947,,,1.0,,0.7727272727272727,1.0,,1.0,1.0,,1.0,1.0,,1.0,0.8235294117647058,0.8,1.0,1.0,,0.9117647058823529,1.0,1.0,0.8125,,1.0,,1.0,1.0,0.8095238095238095,1.0,0.8809523809523809,1.0,1.0,1.0,0.6666666666666666,0.9130434782608695,1.0,0.8,1.0,0.8979591836734694,0.6666666666666666,0.6666666666666666,1.0,0.0,0.8333333333333334,0.8571428571428571,,1.0,1.0,1.0,,,1.0,1.0,1.0,1.0,1.0,1.0,1.0,1.0,1.0,1.0,1.0,1.0,1.0,1.0,1.0,1.0,0.8269230769230769,0.0,,0.0,,,0.9090909090909091,1.0,0.8571428571428571,0.9473684210526315,0.6551724137931034,0.5,,1.0,0.7142857142857143,0.5,,,,0.9473684210526315,1.0,,1.0,1.0,1.0,,0.9615384615384616,1.0,1.0,1.0,0.7647058823529411,0.5,0.6666666666666666,,1.0,1.0,1.0,0.3333333333333333,1.0,,0.9759036144578314,,1.0,1.0,0.8421052631578947,,0.84375,1.0,0.75,,,0.9444444444444444,0.9230769230769231,1.0,,1.0,,0.5,1.0,1.0,1.0,0.8208955223880597,0.625,0.6666666666666666,1.0,0.9333333333333333,,0.8823529411764706,1.0,0.4,0.8823529411764706,1.0,1.0,1.0,1.0,1.0,1.0
2017-01-10,0.9166666666666666,0.7636363636363637,1.0,,0.9,0.4,1.0,1.0,1.0,,1.0,,1.0,0.95,0.5714285714285714,0.8611111111111112,1.0,1.0,1.0,1.0,0.75,0.0,0.3333333333333333,1.0,1.0,1.0,1.0,0.875,0.6666666666666666,1.0,1.0,0.8048780487804879,1.0,0.9444444444444444,0.6666666666666666,0.4,0.6666666666666666,1.0,0.0,1.0,1.0,0.0,0.6666666666666666,0.5,0.3333333333333333,0.6666666666666666,1.0,0.0,,1.0,1.0,1.0,0.8333333333333334,0.6666666666666666,1.0,0.875,0.5396825396825397,0.75,,0.7560975609756098,0.7058823529411765,0.0,0.9242424242424242,0.9230769230769231,0.7419354838709677,0.9090909090909091,1.0,0.8888888888888888,1.0,0.9344262295081968,1.0,0.765625,1.0,0.8571428571428571,0.7777777777777778,0.6666666666666666,0.8,1.0,0.6666666666666666,0.4444444444444444,1.0,,0.5,0.875,0.967741935483871,1.0,,1.0,0.9333333333333333,1.0,0.5384615384615384,1.0,1.0,0.8333333333333334,,0.9166666666666666,0.5,,0.42857142857142855,1.0,0.875,1.0,0.7857142857142857,0.0,1.0,1.0,1.0,0.609375,0.0,1.0,0.8095238095238095,1.0,1.0,0.625,1.0,0.5,1.0,1.0,1.0,0.5,1.0,0.8333333333333334,1.0,0.0,0.75,0.9295774647887324,0.5555555555555556,1.0,1.0,0.6666666666666666,,1.0,0.9655172413793104,0.75,1.0,0.6666666666666666,,0.0,0.8333333333333334,1.0,0.8888888888888888,,0.5714285714285714,0.0,0.7755102040816326,0.875,,0.6666666666666666,1.0,1.0,0.4,0.5555555555555556,0.3333333333333333,,0.3333333333333333,0.7272727272727273,0.5952380952380952,1.0,,0.8888888888888888,0.9210526315789473,0.8301886792452831,1.0,0.6923076923076923,1.0,1.0,1.0,0.5,1.0,0.6666666666666666,1.0,1.0,0.75,0.9125,1.0,,1.0,0.7777777777777778,1.0,1.0,1.0,1.0,1.0,0.6666666666666666,,,1.0,1.0,0.0,,,1.0,0.6923076923076923,0.8846153846153846,0.6666666666666666,1.0,0.8596491228070176,0.8333333333333334,0.9090909090909091,1.0,0.8297872340425532,,1.0,0.75,0.7413793103448276,1.0,1.0,,,0.9,1.0,1.0,0.9215686274509803,0.0,0.75,0.8823529411764706,0.5,0.9333333333333333,0.8695652173913043,1.0,1.0,1.0,,1.0,1.0,,1.0,1.0,1.0,1.0,1.0,1.0,0.8620689655172413,0.9545454545454546,1.0,1.0,1.0,0.9259259259259259,1.0,1.0,0.78125,0.5714285714285714,1.0,1.0,0.7222222222222222,1.0,1.0,,0.6666666666666666,,1.0,1.0,0.6666666666666666,1.0,0.5,0.8974358974358975,0.8461538461538461,1.0,1.0,1.0,1.0,1.0,0.8666666666666667,0.8,0.5,1.0,,0.9473684210526315,1.0,1.0,0.8333333333333334,,1.0,1.0,1.0,1.0,0.75,,1.0,,0.8888888888888888,,0.9,1.0,0.8,0.9795918367346939,0.3333333333333333,,1.0,0.6363636363636364,0.9473684210526315,0.9,1.0,0.0,0.8695652173913043,,0.8888888888888888,0.8695652173913043,0.0,0.847457627118644,1.0,,0.9693877551020408,1.0,1.0,0.9375,1.0,0.8571428571428571,0.9230769230769231,0.0,1.0,0.75,1.0,,,0.5625,,0.7333333333333333,1.0,1.0,1.0,0.0,0.9375,,1.0,0.7368421052631579,0.9,1.0,0.8125,0.6666666666666666,1.0,0.9019607843137255,0.5833333333333334,1.0,0.8333333333333334,0.6666666666666666,1.0,,0.6666666666666666,0.8333333333333334,0.85,0.7272727272727273,0.9333333333333333,0.92,0.8461538461538461,,0.36363636363636365,1.0,0.875,0.9411764705882353,0.9230769230769231,0.7777777777777778,0.6,,0.6666666666666666,1.0,0.8571428571428571,,1.0,,1.0,0.7727272727272727,1.0,1.0,,1.0,1.0,,0.9090909090909091,1.0,1.0,0.75,1.0,1.0,1.0,1.0,0.7636363636363637,,1.0,0.75,1.0,1.0,1.0,,1.0,0.8823529411764706,1.0,0.8852459016393442,1.0,0.6666666666666666,1.0,0.95,0.717391304347826,,0.4444444444444444,1.0,0.7674418604651163,0.8461538461538461,1.0,1.0,1.0,0.9130434782608695,0.8448275862068966,0.6666666666666666,0.8571428571428571,,1.0,1.0,1.0,0.8571428571428571,1.0,1.0,0.8,0.9473684210526315,1.0,0.8888888888888888,0.75,1.0,0.8,1.0,1.0,1.0,0.9473684210526315,0.8333333333333334,1.0,0.8245614035087719,0.2222222222222222,,0.8,1.0,1.0,1.0,1.0,0.9375,1.0,0.4576271186440678,0.6666666666666666,1.0,,1.0,1.0,0.9583333333333334,0.2857142857142857,,1.0,1.0,,1.0,0.6,0.8,,0.8,0.9,1.0,1.0,0.8571428571428571,1.0,1.0,1.0,0.9285714285714286,0.7777777777777778,1.0,1.0,0.7,,0.9324324324324325,1.0,1.0,1.0,0.8666666666666667,,1.0,1.0,,1.0,1.0,1.0,1.0,0.0,,0.9285714285714286,,1.0,1.0,0.875,1.0,0.8518518518518519,1.0,0.6666666666666666,0.5,0.875,0.8,0.9696969696969697,0.5714285714285714,1.0,0.9411764705882353,1.0,,1.0,0.9574468085106383,1.0,0.8
2017-01-11,0.75,0.6888888888888889,0.5,,1.0,0.0,1.0,0.2,1.0,,1.0,1.0,1.0,0.9583333333333334,0.5,0.8421052631578947,1.0,1.0,1.0,1.0,1.0,0.9,0.5,0.6666666666666666,0.5,0.875,0.6666666666666666,0.8,1.0,1.0,1.0,0.9615384615384616,0.4,1.0,1.0,0.5,,1.0,0.7272727272727273,0.8,0.9333333333333333,0.8333333333333334,0.0,0.5,1.0,0.5714285714285714,1.0,1.0,,1.0,0.8,,0.8,1.0,1.0,0.6470588235294118,0.5869565217391305,,1.0,0.7878787878787878,0.8571428571428571,0.75,0.8493150684931506,0.8,0.8548387096774194,1.0,0.9302325581395349,0.8888888888888888,1.0,0.9846153846153847,1.0,0.7894736842105263,0.6666666666666666,1.0,1.0,0.0,0.0,0.9411764705882353,1.0,0.8181818181818182,1.0,1.0,1.0,1.0,0.8275862068965517,0.0,,0.5,0.8,1.0,0.8214285714285714,0.9090909090909091,1.0,1.0,0.75,0.6666666666666666,,0.5,1.0,0.6666666666666666,0.7575757575757576,1.0,0.875,1.0,0.6666666666666666,0.8,0.8,0.54,1.0,1.0,0.8787878787878788,0.875,,0.6666666666666666,,1.0,0.6666666666666666,1.0,1.0,0.0,1.0,0.6,0.5,0.0,0.3333333333333333,0.9130434782608695,1.0,0.6666666666666666,0.9166666666666666,1.0,0.6666666666666666,1.0,0.9054054054054054,1.0,0.5,0.5,1.0,1.0,1.0,1.0,0.5,1.0,0.5,0.5,0.5531914893617021,1.0,0.75,0.75,1.0,0.8666666666666667,0.5,0.7358490566037735,1.0,1.0,0.7142857142857143,0.6666666666666666,0.4375,1.0,1.0,1.0,1.0,0.9672131147540983,1.0,0.6122448979591837,1.0,1.0,,1.0,0.9375,0.875,1.0,1.0,1.0,0.9838709677419355,,1.0,,0.6666666666666666,1.0,0.75,1.0,1.0,1.0,1.0,,,0.5,,1.0,,1.0,0.5,0.8695652173913043,0.9354838709677419,,0.3333333333333333,0.7222222222222222,0.9,0.6333333333333333,1.0,0.9206349206349206,1.0,0.8333333333333334,0.5,0.7755102040816326,,1.0,,1.0,0.7647058823529411,1.0,1.0,0.875,1.0,1.0,0.9,1.0,0.8,0.9473684210526315,0.7,1.0,1.0,1.0,1.0,1.0,,0.0,,1.0,1.0,1.0,0.25,0.8518518518518519,1.0,1.0,,0.9375,0.8,0.875,,0.7714285714285715,1.0,1.0,1.0,0.8333333333333334,,,,1.0,,0.6666666666666666,1.0,1.0,1.0,1.0,0.7704918032786885,0.9333333333333333,1.0,0.75,0.5,,1.0,0.9615384615384616,0.65,1.0,1.0,1.0,0.8,1.0,1.0,0.6666666666666666,0.5454545454545454,1.0,1.0,1.0,0.9736842105263158,1.0,1.0,1.0,,0.9230769230769231,1.0,0.6666666666666666,1.0,,1.0,1.0,,1.0,0.9166666666666666,0.7674418604651163,1.0,,,0.8723404255319149,1.0,0.9375,0.9787234042553191,0.6666666666666666,0.8113207547169812,1.0,,0.9310344827586207,0.0,1.0,0.9433962264150944,0.0,1.0,0.8235294117647058,1.0,1.0,1.0,0.0,,1.0,0.7142857142857143,1.0,0.8085106382978723,1.0,,1.0,0.75,0.7021276595744681,1.0,1.0,0.8666666666666667,0.8269230769230769,1.0,0.9487179487179487,0.7142857142857143,1.0,0.8775510204081632,0.0,,1.0,1.0,0.75,1.0,0.5714285714285714,1.0,0.625,1.0,1.0,0.88,0.7272727272727273,1.0,0.5,1.0,0.72,0.8571428571428571,0.8571428571428571,0.8888888888888888,0.75,0.5,1.0,1.0,0.9375,,,0.5,1.0,0.8163265306122449,1.0,1.0,1.0,1.0,,1.0,0.7,1.0,1.0,0.8636363636363636,0.8571428571428571,,1.0,0.8,0.8412698412698413,1.0,0.8636363636363636,0.7297297297297297,1.0,1.0,1.0,1.0,0.0,0.9090909090909091,0.631578947368421,0.84,1.0,0.8275862068965517,0.6666666666666666,0.78125,0.82,1.0,1.0,1.0,0.9512195121951219,0.5555555555555556,1.0,1.0,0.3333333333333333,0.8448275862068966,0.8923076923076924,0.4,1.0,1.0,,1.0,0.5,0.3333333333333333,1.0,1.0,0.9166666666666666,0.7692307692307693,1.0,0.75,1.0,,1.0,1.0,,1.0,0.9375,1.0,1.0,0.8148148148148148,0.5,0.0,1.0,,0.8,0.8461538461538461,,0.7727272727272727,1.0,0.6,1.0,0.0,1.0,0.8571428571428571,1.0,1.0,,1.0,1.0,0.5714285714285714,,1.0,0.5,1.0,,0.75,0.8695652173913043,0.8,1.0,0.85,0.0,0.5,1.0,0.9090909090909091,0.875,1.0,1.0,1.0,,0.855072463768116,,1.0,1.0,0.926829268292683,,0.9375,1.0,1.0,1.0,1.0,1.0,0.5,1.0,,0.8571428571428571,,1.0,1.0,1.0,1.0,0.85,0.9,1.0,1.0,1.0,1.0,0.9545454545454546,0.3333333333333333,1.0,1.0,1.0,,,0.8780487804878049,1.0,
2017-01-12,0.8333333333333334,0.6756756756756757,0.6875,,1.0,0.6,1.0,,1.0,,1.0,0.3333333333333333,0.6666666666666666,0.8636363636363636,1.0,0.78125,1.0,,1.0,0.75,0.9285714285714286,0.5,1.0,1.0,1.0,0.6666666666666666,1.0,0.8,1.0,0.8,1.0,0.9574468085106383,1.0,1.0,0.0,1.0,0.0,1.0,0.8947368421052632,,1.0,1.0,0.6666666666666666,,0.9230769230769231,0.6,1.0,0.8,1.0,,1.0,,0.9041095890410958,1.0,0.8,0.5,0.8135593220338984,1.0,0.8,0.48148148148148145,0.9,1.0,0.9354838709677419,0.9333333333333333,0.8571428571428571,0.0,0.9090909090909091,0.90625,1.0,1.0,1.0,0.7777777777777778,0.9166666666666666,0.8333333333333334,1.0,1.0,1.0,0.9375,1.0,1.0,,1.0,0.25,0.8,0.9210526315789473,0.0,1.0,1.0,1.0,1.0,0.6153846153846154,1.0,1.0,1.0,1.0,0.8,1.0,,0.6666666666666666,0.8333333333333334,0.9310344827586207,1.0,1.0,0.4,1.0,0.8333333333333334,,0.7307692307692307,,1.0,0.9615384615384616,,1.0,1.0,1.0,1.0,0.3333333333333333,1.0,1.0,0.9090909090909091,1.0,1.0,,,1.0,0.9726027397260274,,1.0,0.7142857142857143,,,1.0,0.953125,1.0,0.782608695652174,,,,0.9,1.0,1.0,,0.6666666666666666,1.0,0.7058823529411765,1.0,1.0,1.0,1.0,1.0,0.6,0.5454545454545454,1.0,1.0,0.7777777777777778,0.75,0.5609756097560976,0.16666666666666666,1.0,0.6,0.8653846153846154,0.8032786885245902,,0.6716417910447762,0.75,,0.0,1.0,0.9230769230769231,1.0,0.3333333333333333,1.0,0.6,0.8974358974358975,0.6666666666666666,1.0,1.0,,1.0,1.0,1.0,,0.3333333333333333,0.5,1.0,,0.75,1.0,,,1.0,1.0,0.8888888888888888,0.8461538461538461,1.0,1.0,0.8292682926829268,0.6551724137931034,0.8666666666666667,,0.9411764705882353,,1.0,0.38095238095238093,0.875,1.0,1.0,,,0.9428571428571428,1.0,1.0,1.0,0.5,0.8181818181818182,1.0,0.0,1.0,0.9230769230769231,0.7894736842105263,1.0,1.0,0.5,0.8333333333333334,,,0.0,1.0,,1.0,,0.5,0.8148148148148148,0.9,1.0,,0.8461538461538461,0.8666666666666667,0.8,,0.75,0.6666666666666666,0.6666666666666666,1.0,1.0,,1.0,,1.0,,0.0,1.0,0.75,0.75,1.0,0.8292682926829268,0.8636363636363636,1.0,0.5,0.6666666666666666,1.0,0.75,0.96875,0.9090909090909091,1.0,1.0,1.0,0.5555555555555556,1.0,0.0,1.0,0.7142857142857143,1.0,,0.7,1.0,1.0,0.3333333333333333,,,0.96,0.42857142857142855,1.0,1.0,1.0,1.0,0.8571428571428571,,0.2,0.7692307692307693,0.9024390243902439,1.0,,0.5,0.9814814814814815,1.0,0.8421052631578947,0.8767123287671232,0.6666666666666666,0.8846153846153846,,1.0,0.9787234042553191,1.0,0.9090909090909091,0.9538461538461539,0.0,1.0,0.8571428571428571,1.0,,1.0,1.0,1.0,1.0,0.75,1.0,0.8571428571428571,,,1.0,1.0,0.9354838709677419,,1.0,0.75,0.8604651162790697,1.0,0.95,0.875,1.0,0.8461538461538461,1.0,,0.8,1.0,1.0,1.0,0.875,1.0,0.7333333333333333,0.7142857142857143,1.0,0.9545454545454546,0.6363636363636364,1.0,0.9473684210526315,0.5,0.7,0.5,0.8888888888888888,0.9333333333333333,0.3076923076923077,1.0,1.0,0.9,1.0,0.5,1.0,1.0,,0.7058823529411765,1.0,0.9523809523809523,1.0,0.6,1.0,,1.0,,0.8596491228070176,1.0,1.0,1.0,0.75,1.0,0.873015873015873,1.0,1.0,0.8947368421052632,0.8333333333333334,1.0,1.0,1.0,0.6666666666666666,0.6363636363636364,0.75,0.9056603773584906,1.0,1.0,1.0,0.6551724137931034,0.9047619047619048,1.0,1.0,,0.7638888888888888,0.9090909090909091,1.0,0.3333333333333333,,0.7659574468085106,0.9310344827586207,,1.0,1.0,0.6923076923076923,1.0,1.0,1.0,1.0,1.0,0.6,0.5,0.5,0.975609756097561,1.0,1.0,0.6666666666666666,1.0,,,1.0,1.0,,0.8813559322033898,0.0,1.0,1.0,1.0,,1.0,1.0,0.96,0.9545454545454546,0.5423728813559322,1.0,0.4,,0.9230769230769231,1.0,1.0,1.0,1.0,0.95,0.5,0.0,1.0,0.6,0.8,,1.0,1.0,1.0,1.0,0.5806451612903226,1.0,,1.0,1.0,0.75,,1.0,1.0,1.0,0.9111111111111111,1.0,1.0,1.0,0.8108108108108109,1.0,1.0,1.0,,1.0,,0.9285714285714286,1.0,,,0.625,,1.0,1.0,1.0,1.0,0.8035714285714286,1.0,1.0,0.0,0.9,1.0,0.9032258064516129,1.0,1.0,1.0,1.0,1.0,1.0,0.9375,1.0,0.6666666666666666
2017-01-13,0.8,0.8260869565217391,0.8333333333333334,,1.0,0.5,1.0,0.5,1.0,,1.0,1.0,1.0,1.0,,0.5217391304347826,,1.0,0.9285714285714286,1.0,0.8333333333333334,0.0,0.0,1.0,1.0,1.0,1.0,0.8,1.0,0.9,1.0,0.9166666666666666,0.0,1.0,0.9666666666666667,0.3333333333333333,1.0,0.5,0.75,0.0,1.0,1.0,1.0,0.0,1.0,1.0,1.0,1.0,0.0,1.0,1.0,1.0,0.8148148148148148,1.0,0.6666666666666666,0.8571428571428571,0.5757575757575758,,0.0,0.5925925925925926,0.5625,0.75,0.9411764705882353,0.6666666666666666,0.9090909090909091,1.0,0.9565217391304348,0.7857142857142857,,0.819672131147541,0.8571428571428571,0.8723404255319149,1.0,0.9285714285714286,0.7777777777777778,1.0,0.0,1.0,1.0,1.0,1.0,1.0,1.0,0.8571428571428571,0.9459459459459459,1.0,0.0,1.0,1.0,,0.5,0.8888888888888888,1.0,1.0,1.0,1.0,1.0,,1.0,0.7142857142857143,0.6785714285714286,1.0,1.0,,,1.0,0.0,0.7659574468085106,,0.6,0.9855072463768116,1.0,1.0,1.0,0.5,1.0,0.8571428571428571,0.6666666666666666,1.0,0.8,1.0,1.0,1.0,1.0,1.0,0.96875,1.0,1.0,0.8571428571428571,0.5714285714285714,1.0,1.0,0.927536231884058,0.8333333333333334,0.9024390243902439,1.0,,0.3333333333333333,0.75,1.0,1.0,0.0,0.8,1.0,0.68,0.8333333333333334,1.0,1.0,,0.92,1.0,0.75,0.5,1.0,1.0,0.5,0.3157894736842105,0.5,0.25,1.0,0.896551724137931,0.9285714285714286,1.0,0.45454545454545453,1.0,0.6,,1.0,1.0,0.8666666666666667,1.0,1.0,0.7142857142857143,0.8,,1.0,1.0,0.7142857142857143,0.5,0.2,1.0,,0.75,1.0,0.0,1.0,1.0,,1.0,,1.0,,0.7272727272727273,0.0,,1.0,0.6538461538461539,0.64,0.9166666666666666,,0.660377358490566,1.0,0.8333333333333334,1.0,0.78,1.0,1.0,,1.0,0.9811320754716981,1.0,1.0,0.8888888888888888,1.0,0.9,1.0,0.8461538461538461,1.0,0.7307692307692307,0.9,1.0,1.0,1.0,0.9166666666666666,0.5,1.0,1.0,,0.0,1.0,1.0,1.0,0.963855421686747,0.9,1.0,0.5,0.6,0.95,1.0,0.6666666666666666,0.7916666666666666,0.75,1.0,1.0,0.8571428571428571,,1.0,1.0,1.0,,,0.75,0.3333333333333333,1.0,1.0,0.9696969696969697,0.8888888888888888,1.0,1.0,1.0,1.0,1.0,0.7894736842105263,0.75,1.0,1.0,1.0,0.6857142857142857,0.5714285714285714,0.4,1.0,0.0,1.0,0.8333333333333334,0.75,0.8333333333333334,1.0,1.0,0.7142857142857143,,0.8888888888888888,0.6666666666666666,,1.0,1.0,0.7647058823529411,1.0,1.0,1.0,0.875,0.8780487804878049,0.75,1.0,1.0,0.96875,1.0,0.8333333333333334,0.8676470588235294,1.0,0.7833333333333333,1.0,,0.8791208791208791,1.0,0.9375,0.8717948717948718,,0.9285714285714286,0.47058823529411764,1.0,1.0,,,,1.0,0.8,1.0,0.7551020408163265,1.0,1.0,1.0,,0.9384615384615385,0.5,1.0,0.7777777777777778,0.7857142857142857,1.0,0.9,1.0,0.5,0.9230769230769231,1.0,0.0,1.0,1.0,1.0,1.0,0.75,1.0,0.7058823529411765,0.5416666666666666,1.0,0.6428571428571429,1.0,1.0,1.0,1.0,0.9473684210526315,1.0,0.8461538461538461,0.6,0.0,,1.0,0.9636363636363636,0.8666666666666667,1.0,1.0,1.0,1.0,0.6521739130434783,1.0,0.92,,1.0,1.0,0.0,0.9230769230769231,,0.9473684210526315,0.9534883720930233,1.0,1.0,1.0,,0.7966101694915254,1.0,1.0,0.8666666666666667,,1.0,,1.0,1.0,1.0,0.8333333333333334,0.8793103448275862,0.5,0.8333333333333334,1.0,0.7941176470588235,0.75,0.6666666666666666,0.75,,0.9310344827586207,0.5,1.0,,,0.8823529411764706,0.967741935483871,0.6666666666666666,1.0,0.3333333333333333,1.0,,1.0,1.0,0.5,1.0,1.0,0.7142857142857143,0.0,0.9375,1.0,1.0,1.0,1.0,1.0,1.0,1.0,0.8,0.0,0.927536231884058,0.8,,1.0,1.0,1.0,0.8181818181818182,1.0,0.8421052631578947,0.9,0.6379310344827587,0.3333333333333333,1.0,,0.8235294117647058,1.0,1.0,,,1.0,0.6666666666666666,0.6666666666666666,,0.8181818181818182,1.0,,1.0,1.0,0.6,1.0,1.0,0.5,0.3333333333333333,0.8571428571428571,1.0,0.7692307692307693,1.0,1.0,0.8888888888888888,1.0,0.9135802469135802,,1.0,1.0,0.9615384615384616,,0.9375,0.8888888888888888,,1.0,,1.0,1.0,,,0.6,,0.9565217391304348,0.3333333333333333,0.875,1.0,0.6981132075471698,1.0,1.0,1.0,0.7,0.6666666666666666,1.0,,,0.875,1.0,1.0,0.6666666666666666,0.9148936170212766,1.0,0.8571428571428571
2017-01-14,1.0,0.6666666666666666,1.0,,1.0,1.0,,,,,1.0,,,1.0,1.0,1.0,,,0.8571428571428571,1.0,1.0,0.5,,1.0,1.0,,,,1.0,1.0,,1.0,,,1.0,1.0,,1.0,1.0,1.0,,,1.0,0.0,0.0,1.0,,,1.0,,1.0,,0.8666666666666667,,,1.0,0.43636363636363634,0.0,,0.5714285714285714,1.0,1.0,0.9285714285714286,1.0,0.8214285714285714,1.0,1.0,1.0,1.0,0.7777777777777778,,0.6037735849056604,0.8333333333333334,1.0,0.9090909090909091,1.0,0.3333333333333333,1.0,0.7142857142857143,,,,,0.8571428571428571,1.0,,,1.0,0.5,,1.0,1.0,1.0,,1.0,0.8,,,0.0,,0.9642857142857143,,1.0,1.0,0.0,,1.0,0.6511627906976745,1.0,1.0,0.8620689655172413,1.0,,,,,,1.0,1.0,,1.0,1.0,,,1.0,0.9240506329113924,0.0,1.0,1.0,1.0,1.0,,0.9411764705882353,1.0,1.0,,1.0,0.3333333333333333,1.0,1.0,1.0,1.0,1.0,1.0,0.7796610169491526,1.0,1.0,0.5,0.0,1.0,1.0,0.7608695652173914,1.0,,1.0,,1.0,1.0,,1.0,0.7391304347826086,0.8409090909090909,,0.5882352941176471,1.0,,1.0,1.0,1.0,1.0,1.0,1.0,0.5,0.8,1.0,,1.0,0.0,1.0,,0.6666666666666666,1.0,1.0,1.0,,,1.0,,,1.0,1.0,,,1.0,,1.0,0.8571428571428571,0.875,1.0,,0.8431372549019608,1.0,,1.0,0.8518518518518519,,,,1.0,0.75,0.75,0.25,0.75,0.3333333333333333,1.0,1.0,1.0,0.5,1.0,1.0,1.0,0.6666666666666666,,0.8,,,1.0,1.0,0.0,1.0,,0.2,0.859375,1.0,,1.0,1.0,1.0,1.0,1.0,0.8947368421052632,1.0,,,1.0,,,,1.0,,1.0,1.0,,,,0.9090909090909091,1.0,1.0,1.0,1.0,0.0,1.0,0.8333333333333334,1.0,1.0,,1.0,1.0,1.0,1.0,0.972972972972973,0.0,1.0,0.0,1.0,1.0,0.0,0.6,0.0,,1.0,0.0,0.5,,,0.7142857142857143,1.0,,1.0,0.6,1.0,,,1.0,0.8571428571428571,,0.6875,0.9411764705882353,,0.8333333333333334,1.0,,0.9054054054054054,1.0,,0.9166666666666666,1.0,1.0,1.0,1.0,,1.0,1.0,,1.0,0.7,0.6666666666666666,0.75,1.0,1.0,1.0,,1.0,,1.0,0.5,0.5789473684210527,,0.8333333333333334,1.0,0.5,0.9777777777777777,,,1.0,1.0,,1.0,0.75,,0.7222222222222222,0.8571428571428571,1.0,1.0,1.0,,,,1.0,1.0,1.0,1.0,0.25,,,1.0,0.8,,,1.0,,0.6956521739130435,1.0,1.0,1.0,1.0,,,1.0,,1.0,1.0,1.0,,1.0,1.0,0.9459459459459459,1.0,1.0,1.0,,1.0,,,1.0,1.0,1.0,0.8636363636363636,1.0,1.0,1.0,0.625,0.9333333333333333,1.0,1.0,,0.875,,,,,0.9230769230769231,0.7692307692307693,1.0,1.0,,1.0,,,,1.0,1.0,1.0,0.6666666666666666,,0.8571428571428571,0.8571428571428571,1.0,1.0,1.0,,1.0,,1.0,,0.9534883720930233,1.0,1.0,,1.0,1.0,0.9,,0.9444444444444444,0.8333333333333334,0.6065573770491803,1.0,,,0.75,1.0,1.0,,0.0,0.8,,,1.0,1.0,,,1.0,1.0,1.0,1.0,0.6666666666666666,0.6666666666666666,,1.0,1.0,0.6666666666666666,1.0,,0.5,1.0,0.8,,1.0,1.0,0.8,,,1.0,1.0,,,1.0,1.0,,,,,1.0,1.0,1.0,1.0,0.5161290322580645,1.0,0.3333333333333333,,1.0,1.0,0.9090909090909091,1.0,1.0,1.0,1.0,,1.0,1.0,1.0,
2017-01-15,1.0,1.0,0.5,,,1.0,1.0,1.0,,,,,,1.0,,0.75,,,1.0,,0.3333333333333333,0.9090909090909091,,,0.5,,,0.6666666666666666,,1.0,,1.0,,1.0,1.0,,,1.0,1.0,1.0,1.0,1.0,1.0,1.0,,,1.0,,1.0,,,,0.9117647058823529,0.0,,1.0,0.6078431372549019,,,0.75,1.0,,0.927536231884058,,0.6865671641791045,1.0,0.8947368421052632,0.7,,1.0,1.0,0.66,1.0,0.8888888888888888,0.9473684210526315,1.0,,,0.0,1.0,,1.0,,,1.0,,,1.0,1.0,1.0,1.0,1.0,1.0,1.0,1.0,1.0,,0.0,,0.3333333333333333,0.9285714285714286,1.0,0.0,1.0,,1.0,1.0,0.49206349206349204,0.0,1.0,0.963855421686747,1.0,,,,,,,1.0,,,,1.0,,,0.8709677419354839,0.5,0.8571428571428571,1.0,,1.0,1.0,0.9629629629629629,,1.0,,,,,1.0,,,1.0,,0.7446808510638298,,,,,1.0,1.0,0.7333333333333333,1.0,,,1.0,0.875,,1.0,1.0,0.9166666666666666,0.8085106382978723,,0.65,1.0,1.0,,1.0,0.8888888888888888,1.0,,,0.75,0.926829268292683,,1.0,,,0.5,,0.6666666666666666,0.0,1.0,,,,1.0,1.0,,1.0,,,1.0,1.0,,,0.9,0.8333333333333334,1.0,,0.8135593220338984,1.0,,1.0,0.8727272727272727,1.0,,,,1.0,1.0,,1.0,,1.0,1.0,,1.0,0.6666666666666666,1.0,,,,0.8571428571428571,,,,,1.0,,,,0.9074074074074074,1.0,1.0,1.0,0.96,1.0,1.0,,0.9,0.0,1.0,,1.0,,,1.0,1.0,,0.0,1.0,,1.0,1.0,0.9552238805970149,1.0,0.0,1.0,1.0,,1.0,1.0,,,1.0,1.0,0.75,1.0,0.6666666666666666,1.0,1.0,,1.0,0.0,1.0,,,,,1.0,1.0,1.0,,,0.967741935483871,1.0,,1.0,0.8,0.6875,,,,0.967741935483871,,1.0,0.9508196721311475,1.0,0.8611111111111112,,,0.9803921568627451,,1.0,1.0,1.0,1.0,0.8888888888888888,,,,1.0,,1.0,0.8125,1.0,0.525,,,,1.0,1.0,,1.0,0.9,0.5294117647058824,,0.9655172413793104,1.0,0.6,0.9642857142857143,1.0,1.0,1.0,1.0,,1.0,1.0,1.0,0.6875,1.0,1.0,1.0,0.5,,1.0,,0.75,1.0,1.0,1.0,0.3333333333333333,1.0,,1.0,0.9090909090909091,,,1.0,,0.7575757575757576,1.0,1.0,0.0,1.0,,0.0,1.0,,1.0,1.0,1.0,1.0,1.0,,0.9859154929577465,,1.0,1.0,,1.0,,1.0,1.0,1.0,0.0,0.8888888888888888,,1.0,1.0,0.6363636363636364,1.0,1.0,1.0,,1.0,,,,,0.8461538461538461,0.9285714285714286,1.0,1.0,,,1.0,,,1.0,1.0,,0.8,,1.0,0.7142857142857143,1.0,1.0,1.0,,,1.0,1.0,1.0,0.9523809523809523,0.5,,0.25,1.0,1.0,1.0,1.0,1.0,1.0,0.6964285714285714,1.0,0.25,,1.0,1.0,1.0,,,1.0,0.6666666666666666,,1.0,1.0,,,1.0,1.0,1.0,1.0,0.9230769230769231,,1.0,1.0,1.0,0.75,1.0,1.0,0.3333333333333333,,0.967741935483871,1.0,,,0.9090909090909091,,1.0,0.8,,,,0.5,1.0,,,1.0,,,1.0,1.0,1.0,0.813953488372093,0.875,1.0,0.0,0.9090909090909091,1.0,0.84,1.0,,0.0,1.0,,1.0,1.0,1.0,
2017-01-16,0.8,0.875,0.8571428571428571,1.0,1.0,0.4,0.6666666666666666,,1.0,,0.0,1.0,1.0,1.0,1.0,0.875,,,0.8571428571428571,1.0,1.0,0.0,0.0,1.0,,1.0,1.0,1.0,1.0,0.8,,1.0,,0.9583333333333334,1.0,1.0,1.0,1.0,,,0.8,0.5,1.0,1.0,,0.6,1.0,,,,,0.0,0.8181818181818182,0.5,,1.0,0.6037735849056604,,1.0,0.8181818181818182,1.0,1.0,0.88,1.0,0.7761194029850746,1.0,1.0,0.8888888888888888,,0.9545454545454546,0.5,0.7027027027027027,1.0,0.5625,0.8461538461538461,,,1.0,1.0,,1.0,0.0,,1.0,1.0,1.0,1.0,,0.75,1.0,0.0,0.875,1.0,,,,1.0,1.0,0.5,1.0,0.9285714285714286,1.0,0.9230769230769231,,,,,0.5645161290322581,,1.0,1.0,1.0,1.0,1.0,,1.0,1.0,1.0,0.25,,1.0,1.0,,1.0,1.0,0.8923076923076924,1.0,1.0,1.0,0.0,,1.0,0.8125,0.5,0.5,,1.0,0.0,1.0,1.0,,,0.8,,0.74,1.0,0.25,,,1.0,1.0,0.7291666666666666,,,1.0,1.0,0.782608695652174,1.0,1.0,0.9565217391304348,0.9487179487179487,0.8,0.0,0.6071428571428571,0.0,0.8,1.0,1.0,1.0,0.75,0.5,1.0,0.5,0.85,0.5,,0.0,1.0,,0.0,,,0.8333333333333334,1.0,,,,1.0,1.0,,1.0,,0.8333333333333334,1.0,1.0,1.0,0.8095238095238095,0.6666666666666666,0.6666666666666666,,0.8,,1.0,1.0,0.7868852459016393,,,,,1.0,1.0,1.0,0.8571428571428571,1.0,1.0,1.0,1.0,1.0,0.6666666666666666,1.0,1.0,,1.0,0.4444444444444444,,0.0,,,1.0,1.0,,1.0,0.8983050847457628,0.6666666666666666,,1.0,,0.6666666666666666,1.0,,1.0,1.0,1.0,1.0,1.0,,0.0,1.0,,,,1.0,1.0,0.5,,0.8387096774193549,1.0,1.0,0.8,0.0,0.8571428571428571,0.8333333333333334,1.0,1.0,,1.0,1.0,0.8571428571428571,1.0,1.0,1.0,,1.0,1.0,1.0,1.0,1.0,0.0,1.0,,1.0,0.6666666666666666,,1.0,,1.0,0.7142857142857143,0.5,1.0,0.8571428571428571,0.975609756097561,,1.0,,0.9655172413793104,,1.0,0.9634146341463414,1.0,0.8596491228070176,,0.0,0.9565217391304348,1.0,1.0,0.9523809523809523,,1.0,0.7777777777777778,1.0,1.0,,,,,0.8235294117647058,1.0,0.8125,,1.0,,,0.7692307692307693,,,1.0,0.6923076923076923,1.0,1.0,1.0,0.0,0.8571428571428571,1.0,,1.0,1.0,,0.0,1.0,1.0,0.7272727272727273,1.0,1.0,0.8888888888888888,1.0,1.0,,1.0,0.8571428571428571,1.0,0.8,,1.0,0.5,1.0,0.9523809523809523,1.0,,1.0,1.0,,0.6666666666666666,,1.0,1.0,1.0,,,0.9090909090909091,1.0,0.0,0.9411764705882353,1.0,,1.0,,0.9583333333333334,1.0,1.0,1.0,,1.0,,1.0,,1.0,0.8333333333333334,0.8372093023255814,,1.0,1.0,0.6956521739130435,0.875,1.0,,0.0,0.9,0.5,1.0,,,0.9183673469387755,0.8679245283018868,,0.6666666666666666,,,,1.0,,1.0,1.0,1.0,0.75,,0.7777777777777778,1.0,1.0,1.0,1.0,0.0,1.0,1.0,0.9523809523809523,,0.8604651162790697,0.0,,1.0,1.0,1.0,1.0,1.0,0.7,1.0,0.72,1.0,0.5,,1.0,,1.0,,0.0,1.0,1.0,,0.0,0.8571428571428571,1.0,,1.0,0.8,1.0,0.6666666666666666,0.8,1.0,,0.0,1.0,0.6666666666666666,,1.0,,0.5,0.9176470588235294,1.0,,1.0,0.9285714285714286,,1.0,0.5,,1.0,,1.0,1.0,,,0.9230769230769231,,1.0,1.0,1.0,,0.7241379310344828,1.0,1.0,,1.0,,1.0,1.0,1.0,1.0,1.0,,,0.9615384615384616,0.8823529411764706,1.0
2017-01-17,0.8571428571428571,0.5135135135135135,1.0,,1.0,0.3333333333333333,0.75,,1.0,,1.0,0.6666666666666666,1.0,1.0,0.8888888888888888,0.9444444444444444,1.0,,1.0,0.8,0.8,0.8333333333333334,1.0,0.5,1.0,1.0,,1.0,1.0,0.9024390243902439,,0.8928571428571429,1.0,1.0,,1.0,1.0,1.0,0.0,0.0,0.9230769230769231,0.3333333333333333,0.5,0.0,1.0,1.0,1.0,0.7142857142857143,1.0,0.5,1.0,,0.9666666666666667,1.0,0.3333333333333333,0.75,0.5625,1.0,0.75,0.375,0.7333333333333333,1.0,0.9,1.0,0.7777777777777778,1.0,1.0,0.7142857142857143,0.6666666666666666,0.9882352941176471,,0.8,0.8809523809523809,0.8,0.9090909090909091,1.0,,1.0,,1.0,1.0,1.0,1.0,1.0,1.0,,1.0,1.0,1.0,1.0,1.0,0.9,1.0,1.0,1.0,1.0,,,1.0,0.5,0.8571428571428571,1.0,0.75,,,1.0,0.5,0.6851851851851852,1.0,0.75,0.9550561797752809,0.9090909090909091,,0.0,,1.0,1.0,,0.5,0.0,0.6666666666666666,1.0,1.0,1.0,0.8888888888888888,0.9,1.0,1.0,0.875,0.8333333333333334,,1.0,0.9620253164556962,0.8888888888888888,0.9285714285714286,,1.0,1.0,1.0,1.0,1.0,0.5,0.6666666666666666,0.5,0.6595744680851063,0.8,0.8333333333333334,0.3333333333333333,,0.9333333333333333,1.0,0.7457627118644068,1.0,,1.0,1.0,0.5897435897435898,1.0,0.5,1.0,0.8367346938775511,0.9047619047619048,,0.7241379310344828,0.6666666666666666,0.9090909090909091,1.0,,1.0,0.92,0.3333333333333333,1.0,1.0,0.9655172413793104,0.0,,0.75,,,1.0,0.6,,0.5714285714285714,1.0,,1.0,0.5,1.0,1.0,1.0,,,1.0,1.0,1.0,0.9166666666666666,0.8275862068965517,0.86,0.8269230769230769,1.0,0.9090909090909091,,1.0,0.8333333333333334,0.8421052631578947,0.5,1.0,,0.5,0.9565217391304348,1.0,,0.9230769230769231,,1.0,0.9444444444444444,,0.8,0.8947368421052632,0.8,1.0,0.9166666666666666,1.0,1.0,1.0,,,1.0,1.0,1.0,1.0,0.5,0.8793103448275862,0.8181818181818182,1.0,0.3333333333333333,0.9069767441860465,0.8666666666666667,1.0,,0.7906976744186046,0.625,0.6,1.0,1.0,,,1.0,0.3333333333333333,,,0.9487179487179487,0.6666666666666666,0.9230769230769231,,0.75,0.7419354838709677,0.75,1.0,1.0,0.8888888888888888,0.6666666666666666,1.0,0.9,1.0,1.0,1.0,0.9183673469387755,1.0,0.8333333333333334,1.0,1.0,1.0,1.0,0.4,1.0,0.3333333333333333,1.0,1.0,,0.5,0.5,0.5,1.0,0.75,0.819672131147541,0.6666666666666666,,,0.7272727272727273,0.9666666666666667,1.0,1.0,1.0,0.6875,,1.0,0.9436619718309859,,0.8888888888888888,1.0,1.0,0.9767441860465116,0.8,0.875,1.0,1.0,0.8333333333333334,0.875,1.0,1.0,1.0,1.0,1.0,1.0,0.8780487804878049,1.0,0.7272727272727273,0.5,1.0,1.0,0.0,0.9833333333333333,1.0,,0.9,0.5925925925925926,0.6,0.8181818181818182,1.0,1.0,0.8205128205128205,0.7777777777777778,,0.4,,1.0,1.0,0.8666666666666667,1.0,0.8333333333333334,0.75,0.6666666666666666,0.7272727272727273,0.7777777777777778,,0.0,1.0,0.9375,1.0,1.0,0.75,0.18181818181818182,1.0,,1.0,0.75,,1.0,1.0,1.0,0.8214285714285714,0.5,0.5526315789473685,,1.0,,1.0,0.8666666666666667,0.5,0.7272727272727273,0.8709677419354839,1.0,1.0,0.8888888888888888,1.0,0.8035714285714286,1.0,1.0,0.8333333333333334,1.0,1.0,,1.0,1.0,1.0,1.0,0.8653846153846154,,0.85,1.0,0.8846153846153846,0.9333333333333333,0.8888888888888888,0.6666666666666666,,0.9302325581395349,1.0,1.0,1.0,0.5,0.7804878048780488,0.8627450980392157,1.0,0.7,1.0,1.0,,1.0,1.0,,1.0,1.0,1.0,1.0,0.9166666666666666,1.0,1.0,0.875,0.8783783783783784,,1.0,1.0,0.9090909090909091,0.0,0.75,0.5,1.0,,1.0,1.0,1.0,1.0,0.9,0.95,0.47692307692307695,0.0,0.4444444444444444,,0.8333333333333334,1.0,1.0,1.0,1.0,0.9803921568627451,1.0,,1.0,1.0,0.3333333333333333,,1.0,0.9333333333333333,1.0,1.0,0.8571428571428571,0.5,1.0,1.0,1.0,0.6363636363636364,1.0,0.8,0.8181818181818182,,0.9545454545454546,1.0,0.8571428571428571,,0.875,,,0.875,,,0.0,1.0,1.0,1.0,,1.0,,0.9411764705882353,1.0,0.8571428571428571,1.0,0.8,1.0,0.0,,1.0,1.0,0.9318181818181818,0.7,1.0,0.9166666666666666,1.0,,1.0,0.925,0.8222222222222222,1.0
2017-01-18,0.8076923076923077,0.875,0.8709677419354839,,1.0,0.5,0.9090909090909091,1.0,1.0,,1.0,1.0,,1.0,0.9523809523809523,0.8333333333333334,,,1.0,0.9,0.75,0.75,1.0,0.75,1.0,1.0,,0.6,0.8,0.6153846153846154,1.0,0.6153846153846154,1.0,0.9375,0.5,1.0,,,1.0,1.0,1.0,0.7142857142857143,0.8,,,1.0,1.0,0.75,1.0,0.8333333333333334,1.0,,0.835820895522388,1.0,,0.5,0.703125,1.0,1.0,0.7857142857142857,1.0,0.8461538461538461,0.9310344827586207,1.0,0.7555555555555555,0.8,0.9516129032258065,0.8333333333333334,0.0,0.8214285714285714,0.8888888888888888,0.7272727272727273,0.9459459459459459,0.8958333333333334,0.9375,1.0,,0.6666666666666666,1.0,1.0,1.0,1.0,1.0,1.0,1.0,1.0,1.0,1.0,0.6,1.0,1.0,1.0,1.0,1.0,,0.75,1.0,1.0,0.6666666666666666,0.0,0.6904761904761905,1.0,0.875,1.0,,1.0,,0.5490196078431373,1.0,1.0,0.9090909090909091,1.0,1.0,1.0,1.0,1.0,1.0,,0.875,1.0,1.0,,1.0,,0.9,0.8522727272727273,0.5,0.9565217391304348,1.0,0.6666666666666666,1.0,1.0,0.9259259259259259,1.0,1.0,,1.0,0.0,1.0,0.97,0.5,1.0,1.0,1.0,0.676923076923077,1.0,1.0,0.75,,1.0,1.0,0.7321428571428571,1.0,,0.9230769230769231,0.8888888888888888,0.5272727272727272,,,0.9565217391304348,0.86,0.8461538461538461,1.0,0.625,1.0,0.875,1.0,,0.7857142857142857,0.8333333333333334,0.8571428571428571,1.0,0.5,0.9117647058823529,,1.0,0.6666666666666666,,0.6666666666666666,1.0,1.0,,1.0,1.0,1.0,,1.0,1.0,1.0,1.0,,,0.7,0.8571428571428571,0.5,1.0,0.7551020408163265,0.8292682926829268,0.8260869565217391,1.0,0.7833333333333333,1.0,0.6,1.0,0.7142857142857143,1.0,1.0,,1.0,0.8333333333333334,1.0,0.8,0.9142857142857143,,1.0,1.0,0.0,0.7894736842105263,1.0,1.0,0.5,1.0,1.0,1.0,1.0,,,1.0,1.0,1.0,1.0,1.0,0.9733333333333334,0.7619047619047619,1.0,0.8888888888888888,0.9508196721311475,0.9,1.0,1.0,0.6585365853658537,0.5,0.3333333333333333,1.0,1.0,,1.0,0.0,1.0,,1.0,0.967741935483871,0.7142857142857143,0.9047619047619048,1.0,0.95,0.8571428571428571,0.5,0.8571428571428571,0.7142857142857143,1.0,0.9411764705882353,0.7719298245614035,0.8333333333333334,0.0,1.0,1.0,0.875,0.9166666666666666,1.0,0.8571428571428571,0.6,1.0,1.0,0.6666666666666666,1.0,1.0,0.8,1.0,0.0,1.0,,0.9375,1.0,0.8,0.8461538461538461,0.75,1.0,1.0,0.875,0.9354838709677419,0.8571428571428571,1.0,1.0,0.8571428571428571,,1.0,0.925,1.0,0.7592592592592593,0.42857142857142855,,0.9777777777777777,1.0,0.8888888888888888,0.9066666666666666,0.0,0.6666666666666666,0.9,0.8333333333333334,1.0,,0.0,,0.6666666666666666,1.0,1.0,0.9318181818181818,0.6666666666666666,,1.0,1.0,0.6538461538461539,0.0,,1.0,0.8055555555555556,1.0,0.8717948717948718,0.6666666666666666,0.0,0.9014084507042254,,,1.0,1.0,1.0,1.0,0.9565217391304348,1.0,0.7419354838709677,0.75,0.5,0.7142857142857143,0.8333333333333334,,1.0,0.5454545454545454,1.0,0.8181818181818182,0.7142857142857143,0.75,0.0,1.0,0.0,0.8,0.6818181818181818,,,1.0,,0.6458333333333334,1.0,0.6363636363636364,0.5,1.0,0.2,0.8333333333333334,1.0,1.0,1.0,0.7878787878787878,1.0,1.0,1.0,1.0,0.8732394366197183,1.0,1.0,0.8333333333333334,1.0,1.0,1.0,1.0,,0.875,1.0,0.8431372549019608,1.0,1.0,1.0,0.6,0.7692307692307693,1.0,0.5,0.8181818181818182,0.8307692307692308,0.8928571428571429,1.0,1.0,0.75,0.9552238805970149,0.989247311827957,1.0,0.6666666666666666,,1.0,,,0.7,,1.0,1.0,0.75,1.0,1.0,0.8,1.0,0.7857142857142857,0.9787234042553191,1.0,,1.0,1.0,1.0,0.9193548387096774,0.7142857142857143,,1.0,1.0,1.0,1.0,1.0,1.0,1.0,0.6307692307692307,1.0,0.8333333333333334,1.0,0.9166666666666666,,1.0,,1.0,1.0,1.0,1.0,1.0,0.9090909090909091,0.75,,1.0,0.8823529411764706,1.0,1.0,0.875,1.0,0.9,1.0,0.7692307692307693,1.0,,0.0,0.9166666666666666,0.0,0.963855421686747,1.0,0.8571428571428571,1.0,0.9111111111111111,,1.0,1.0,1.0,1.0,0.0,0.9090909090909091,1.0,1.0,,1.0,,1.0,1.0,1.0,1.0,0.6304347826086957,1.0,1.0,,0.75,1.0,1.0,1.0,,0.8,1.0,,1.0,0.9743589743589743,0.75,1.0
2017-01-19,0.8,0.7391304347826086,0.6666666666666666,,1.0,0.8888888888888888,1.0,1.0,1.0,,,0.5,,1.0,0.9,1.0,,,0.8571428571428571,0.9090909090909091,0.7777777777777778,0.8,1.0,1.0,0.25,0.6666666666666666,1.0,0.6666666666666666,,0.8035714285714286,1.0,0.875,1.0,1.0,0.9285714285714286,1.0,0.75,1.0,1.0,1.0,0.2,1.0,0.5,0.7142857142857143,,1.0,0.8571428571428571,1.0,1.0,0.875,1.0,,0.765625,1.0,,0.75,0.5806451612903226,1.0,1.0,0.5555555555555556,0.8260869565217391,0.918918918918919,0.8767123287671232,1.0,0.9411764705882353,0.6666666666666666,0.8695652173913043,0.7428571428571429,,0.9333333333333333,1.0,0.6326530612244898,1.0,0.65,0.8,1.0,1.0,0.9090909090909091,,0.5,,0.5,,0.75,0.8666666666666667,,1.0,0.8888888888888888,0.6666666666666666,1.0,0.75,0.6666666666666666,1.0,0.0,1.0,1.0,1.0,0.0,0.5,1.0,0.8709677419354839,1.0,1.0,1.0,,1.0,0.3333333333333333,0.7169811320754716,,1.0,0.8666666666666667,1.0,,0.75,1.0,1.0,1.0,1.0,1.0,1.0,,1.0,1.0,1.0,1.0,0.9620253164556962,1.0,1.0,0.9166666666666666,1.0,,1.0,0.9047619047619048,1.0,1.0,,1.0,0.0,0.5,1.0,1.0,1.0,1.0,0.7,0.8333333333333334,1.0,,1.0,1.0,0.9166666666666666,,0.7333333333333333,1.0,1.0,0.7272727272727273,0.6666666666666666,0.8064516129032258,1.0,0.0,0.8571428571428571,0.7796610169491526,0.875,,0.7368421052631579,1.0,0.6,1.0,1.0,0.7272727272727273,0.7868852459016393,1.0,0.8918918918918919,1.0,0.8378378378378378,,,1.0,0.6666666666666666,0.8888888888888888,1.0,0.9310344827586207,1.0,0.96875,1.0,1.0,,1.0,1.0,,0.6666666666666666,,,1.0,0.967741935483871,1.0,1.0,0.7105263157894737,0.7222222222222222,0.8846153846153846,0.0,0.8412698412698413,1.0,0.9230769230769231,1.0,0.7391304347826086,,0.875,,1.0,0.875,1.0,1.0,0.8181818181818182,1.0,1.0,1.0,1.0,0.9,0.875,0.8947368421052632,1.0,,1.0,0.9166666666666666,1.0,,,1.0,1.0,1.0,,1.0,0.9111111111111111,0.9090909090909091,1.0,1.0,0.9333333333333333,0.8235294117647058,0.75,1.0,0.5277777777777778,1.0,0.8333333333333334,1.0,,,1.0,0.6666666666666666,1.0,,1.0,1.0,0.8125,0.7272727272727273,1.0,0.8333333333333334,0.8666666666666667,0.8214285714285714,1.0,0.8571428571428571,0.6666666666666666,1.0,0.948051948051948,0.8181818181818182,,1.0,1.0,0.6666666666666666,0.8333333333333334,1.0,1.0,1.0,0.6,,0.0,0.9375,1.0,,0.75,,1.0,,0.9166666666666666,1.0,1.0,0.9473684210526315,1.0,1.0,1.0,0.875,0.926829268292683,1.0,,0.5,0.9375,,1.0,0.8933333333333333,1.0,0.8387096774193549,0.8333333333333334,,0.9479166666666666,1.0,1.0,0.9298245614035088,1.0,1.0,0.5294117647058824,0.0,1.0,1.0,0.8333333333333334,1.0,1.0,0.9047619047619048,1.0,0.8181818181818182,1.0,,1.0,1.0,0.8541666666666666,,0.6666666666666666,1.0,0.8048780487804879,1.0,0.9285714285714286,0.8,0.75,0.75,,1.0,0.75,0.6666666666666666,0.42857142857142855,0.8888888888888888,0.8823529411764706,1.0,0.6153846153846154,1.0,0.0,0.9230769230769231,0.9,,0.75,0.8260869565217391,0.9285714285714286,1.0,1.0,0.8620689655172413,0.2857142857142857,,1.0,1.0,1.0,0.0,0.5,0.6,0.5,0.725,0.875,1.0,1.0,0.9565217391304348,0.6666666666666666,,0.8333333333333334,1.0,1.0,0.96875,0.9230769230769231,1.0,0.8571428571428571,1.0,0.8636363636363636,,0.6666666666666666,0.8571428571428571,,0.5,0.3333333333333333,0.9,1.0,1.0,1.0,0.7321428571428571,,1.0,0.8,0.782608695652174,0.7878787878787878,1.0,1.0,,0.8717948717948718,0.9285714285714286,1.0,,1.0,0.8571428571428571,0.9078947368421053,1.0,0.8695652173913043,1.0,1.0,1.0,1.0,0.3333333333333333,1.0,0.6666666666666666,1.0,1.0,1.0,1.0,0.8888888888888888,0.5,0.8571428571428571,1.0,0.6666666666666666,,1.0,,,0.8727272727272727,1.0,,1.0,1.0,1.0,1.0,1.0,0.9545454545454546,1.0,0.7101449275362319,1.0,0.6666666666666666,0.5,1.0,1.0,0.8,0.6666666666666666,,0.9558823529411765,1.0,,0.0,1.0,0.9090909090909091,,1.0,0.8461538461538461,0.8181818181818182,0.5,0.7894736842105263,,1.0,1.0,1.0,0.8333333333333334,1.0,1.0,1.0,1.0,0.9759036144578314,1.0,1.0,1.0,0.8888888888888888,1.0,1.0,1.0,,1.0,,1.0,0.8571428571428571,1.0,,1.0,,0.5555555555555556,0.75,1.0,1.0,0.75,0.9,1.0,,0.9285714285714286,,0.8928571428571429,0.8,0.6,0.9230769230769231,1.0,,1.0,1.0,1.0,1.0
2017-01-20,0.9166666666666666,0.7692307692307693,0.8333333333333334,1.0,,0.5,,1.0,1.0,,1.0,1.0,1.0,1.0,0.8571428571428571,0.85,,,1.0,0.9166666666666666,0.6666666666666666,,1.0,,,1.0,0.0,0.71875,1.0,0.9347826086956522,,0.8620689655172413,,0.9,0.25,1.0,0.8,1.0,,,1.0,0.8235294117647058,1.0,1.0,1.0,1.0,0.9,0.6666666666666666,1.0,1.0,1.0,1.0,0.8292682926829268,0.8571428571428571,1.0,0.9230769230769231,0.5,,,0.9090909090909091,0.75,0.875,0.9821428571428571,1.0,0.7962962962962963,1.0,0.9230769230769231,0.6842105263157895,,0.7727272727272727,0.7450980392156863,0.9137931034482759,1.0,0.9,0.8333333333333334,1.0,1.0,0.75,1.0,1.0,1.0,,,1.0,1.0,1.0,1.0,0.9047619047619048,1.0,1.0,,1.0,1.0,,,,0.6666666666666666,,0.5,1.0,0.8285714285714286,1.0,1.0,,,,1.0,0.5740740740740741,,1.0,0.8409090909090909,1.0,,1.0,1.0,,1.0,0.6666666666666666,0.9166666666666666,,1.0,0.75,0.0,1.0,1.0,0.7560975609756098,1.0,0.6875,0.6666666666666666,0.0,,1.0,0.9433962264150944,1.0,0.0,,1.0,0.5,0.8181818181818182,1.0,1.0,,1.0,1.0,0.8085106382978723,0.8888888888888888,1.0,0.5,,0.8181818181818182,0.0,0.7258064516129032,1.0,,0.8333333333333334,0.7692307692307693,0.5263157894736842,1.0,1.0,0.9285714285714286,0.9555555555555556,0.8181818181818182,1.0,0.46153846153846156,1.0,0.5,1.0,1.0,0.8,0.7368421052631579,1.0,0.9444444444444444,1.0,0.896551724137931,1.0,,1.0,0.6666666666666666,1.0,1.0,0.5,1.0,0.5,1.0,1.0,0.75,0.7777777777777778,1.0,,1.0,1.0,,0.8421052631578947,0.75,1.0,1.0,0.9259259259259259,0.75,0.9090909090909091,0.5,0.8548387096774194,1.0,0.75,1.0,0.7741935483870968,,1.0,,,0.75,,,0.725,,1.0,0.0,0.5,0.9545454545454546,0.7777777777777778,0.8793103448275862,1.0,1.0,,1.0,,,,,1.0,,1.0,1.0,0.8125,0.8571428571428571,1.0,1.0,0.8,0.6818181818181818,1.0,1.0,0.7272727272727273,1.0,1.0,0.75,,,0.6666666666666666,0.9166666666666666,1.0,,1.0,1.0,0.6875,0.9,,0.8421052631578947,0.8666666666666667,0.6666666666666666,0.75,,1.0,1.0,0.6944444444444444,1.0,1.0,1.0,,0.9285714285714286,0.7,0.6666666666666666,1.0,0.8888888888888888,0.9047619047619048,,1.0,1.0,,1.0,1.0,,1.0,,1.0,1.0,,0.925,,1.0,,0.8,0.8823529411764706,1.0,1.0,1.0,0.8947368421052632,1.0,1.0,0.7666666666666667,0.6666666666666666,0.8709677419354839,0.0,,0.8947368421052632,1.0,1.0,0.9130434782608695,0.6666666666666666,1.0,1.0,1.0,,1.0,1.0,,1.0,0.7941176470588235,1.0,0.8823529411764706,,,1.0,,0.95,,1.0,0.9024390243902439,0.7843137254901961,0.0,1.0,1.0,0.5,0.8541666666666666,0.0,1.0,0.6,0.9285714285714286,0.8,0.6666666666666666,0.88,1.0,0.88,,0.0,0.96,0.8947368421052632,1.0,1.0,1.0,0.9333333333333333,1.0,0.5,1.0,0.0,1.0,1.0,0.875,0.9,0.5,,0.8,,0.7837837837837838,1.0,0.75,1.0,1.0,0.8,,0.9285714285714286,,,0.8947368421052632,0.75,1.0,0.875,,0.8064516129032258,1.0,1.0,0.8,1.0,,1.0,1.0,0.6666666666666666,0.75,0.5128205128205128,0.8297872340425532,1.0,0.8333333333333334,1.0,0.7368421052631579,0.7777777777777778,1.0,1.0,1.0,0.9428571428571428,1.0,1.0,1.0,,0.9166666666666666,0.8048780487804879,1.0,0.9444444444444444,1.0,,,1.0,0.5,,1.0,1.0,0.9285714285714286,,0.9444444444444444,1.0,1.0,0.5,0.9545454545454546,1.0,,0.8333333333333334,1.0,1.0,0.8444444444444444,1.0,1.0,1.0,1.0,1.0,1.0,1.0,0.9629629629629629,1.0,0.6615384615384615,0.6666666666666666,0.6666666666666666,,1.0,1.0,0.8333333333333334,0.0,,0.9,0.75,,0.9565217391304348,0.5769230769230769,1.0,,1.0,1.0,1.0,1.0,1.0,1.0,1.0,1.0,1.0,1.0,1.0,1.0,1.0,1.0,0.9705882352941176,1.0,,1.0,0.676923076923077,1.0,0.95,0.8571428571428571,1.0,1.0,,1.0,0.6,1.0,,0.3333333333333333,,1.0,,1.0,1.0,0.8421052631578947,0.9166666666666666,1.0,1.0,0.8,1.0,0.8275862068965517,0.75,1.0,1.0,1.0,1.0,1.0,0.7837837837837838,0.6666666666666666,1.0
2017-01-21,1.0,0.8333333333333334,0.5,,1.0,0.3333333333333333,,,1.0,,1.0,,0.5,1.0,0.9,1.0,,,1.0,0.8333333333333334,1.0,1.0,1.0,,0.0,1.0,1.0,1.0,,0.8695652173913043,1.0,0.9583333333333334,,1.0,,0.0,,,0.0,,0.6666666666666666,1.0,,1.0,,1.0,1.0,1.0,1.0,1.0,0.5,,0.8888888888888888,0.6666666666666666,1.0,1.0,0.640625,1.0,,0.7142857142857143,0.8571428571428571,1.0,0.9154929577464789,1.0,0.8,1.0,0.9230769230769231,0.8571428571428571,1.0,0.868421052631579,0.8947368421052632,0.7758620689655172,0.9,1.0,0.0,0.0,,1.0,1.0,1.0,1.0,0.5,,0.5,1.0,,,1.0,1.0,,1.0,1.0,0.6666666666666666,,1.0,1.0,1.0,,0.0,1.0,0.6842105263157895,1.0,1.0,,,0.75,1.0,0.5818181818181818,,1.0,1.0,1.0,,1.0,,,1.0,,1.0,0.5,,0.5,,1.0,1.0,0.8793103448275862,0.0,1.0,1.0,1.0,,,0.958904109589041,1.0,,,,1.0,1.0,1.0,,,1.0,1.0,0.7608695652173914,1.0,1.0,1.0,1.0,1.0,1.0,0.7555555555555555,1.0,,,1.0,0.9523809523809523,,,0.9473684210526315,0.9090909090909091,0.84,1.0,0.7142857142857143,,0.0,1.0,1.0,0.875,1.0,0.5,0.42857142857142855,1.0,0.9333333333333333,,,1.0,,0.0,,1.0,,0.8333333333333334,1.0,1.0,0.0,1.0,1.0,,1.0,,,0.8461538461538461,1.0,1.0,,0.8260869565217391,1.0,,,0.9166666666666666,,0.0,1.0,0.803030303030303,,,,,1.0,1.0,1.0,0.9545454545454546,1.0,1.0,0.0,0.5555555555555556,0.8,0.6666666666666666,1.0,,1.0,,1.0,,,,1.0,1.0,1.0,1.0,0.6666666666666666,0.6363636363636364,1.0,1.0,1.0,0.9512195121951219,0.8181818181818182,1.0,,0.6666666666666666,,1.0,1.0,,,,1.0,1.0,,,1.0,0.625,1.0,1.0,0.9736842105263158,1.0,,0.7142857142857143,1.0,,1.0,0.9107142857142857,0.6666666666666666,,,,0.7,1.0,,1.0,0.3333333333333333,,0.0,,0.75,,,,,0.0,,0.0,0.0,1.0,0.9625,1.0,0.0,1.0,0.5,1.0,,,,0.9565217391304348,0.0,0.7857142857142857,0.9125,,0.8888888888888888,,1.0,0.9431818181818182,1.0,1.0,0.9807692307692307,1.0,0.75,0.8888888888888888,1.0,,1.0,1.0,,1.0,0.8421052631578947,1.0,0.6857142857142857,,,1.0,,0.96,,1.0,0.9333333333333333,0.84375,1.0,1.0,,,0.9,1.0,1.0,1.0,0.9,1.0,0.75,1.0,,0.7857142857142857,1.0,1.0,1.0,1.0,1.0,,0.875,0.8333333333333334,0.0,1.0,1.0,,1.0,1.0,1.0,1.0,1.0,,0.8571428571428571,,0.6739130434782609,1.0,0.6666666666666666,,1.0,,,1.0,,,0.9375,1.0,,1.0,0.0,0.9142857142857143,,1.0,1.0,,,,1.0,1.0,1.0,1.0,0.9672131147540983,,1.0,1.0,0.75,0.8333333333333334,,0.0,,0.9666666666666667,0.9166666666666666,1.0,1.0,,0.9705882352941176,0.9069767441860465,,1.0,1.0,,,1.0,,1.0,,1.0,0.7777777777777778,1.0,0.7142857142857143,1.0,1.0,0.5,1.0,0.0,1.0,,1.0,0.0,1.0,0.8,1.0,1.0,1.0,,1.0,1.0,0.6666666666666666,1.0,0.5789473684210527,0.0,0.0,,0.7692307692307693,1.0,,,,0.9795918367346939,1.0,,1.0,0.9166666666666666,,,0.75,0.5,,1.0,1.0,,1.0,1.0,1.0,1.0,1.0,,1.0,,1.0,1.0,1.0,,0.9302325581395349,1.0,1.0,0.75,1.0,,,1.0,1.0,1.0,,1.0,,1.0,,1.0,0.75,0.6486486486486487,1.0,1.0,1.0,1.0,1.0,0.967741935483871,1.0,1.0,1.0,0.0,0.5,,0.9393939393939394,1.0,
2017-01-22,1.0,0.6666666666666666,0.8,,1.0,0.5,1.0,,1.0,,,,0.5,0.7142857142857143,1.0,1.0,,,0.8571428571428571,1.0,0.5,1.0,1.0,1.0,1.0,1.0,1.0,0.9375,1.0,1.0,,1.0,1.0,1.0,1.0,1.0,1.0,,,0.16666666666666666,1.0,0.0,0.8,,,1.0,0.8571428571428571,0.0,,0.5,1.0,,0.9555555555555556,0.6666666666666666,,1.0,0.8478260869565217,,,0.5,1.0,,0.8522727272727273,1.0,0.819672131147541,1.0,1.0,0.7777777777777778,,0.9210526315789473,0.875,0.7413793103448276,1.0,1.0,1.0,,,1.0,,1.0,,1.0,,,0.9545454545454546,,,,1.0,1.0,,1.0,1.0,0.0,,1.0,0.6666666666666666,,0.0,,1.0,1.0,1.0,1.0,1.0,0.0,1.0,0.5166666666666667,,1.0,0.9791666666666666,,,1.0,,1.0,,1.0,,1.0,1.0,0.0,,1.0,0.5,0.8636363636363636,1.0,1.0,0.8888888888888888,,,1.0,0.9787234042553191,1.0,0.5,,,,1.0,1.0,1.0,1.0,1.0,1.0,0.7111111111111111,1.0,1.0,1.0,,0.6666666666666666,1.0,0.7021276595744681,1.0,,0.92,,0.8947368421052632,,1.0,0.9333333333333333,0.9347826086956522,0.890625,,0.5882352941176471,,1.0,1.0,0.0,1.0,1.0,0.6,,1.0,0.9523809523809523,,,0.0,,,1.0,1.0,1.0,1.0,1.0,,,1.0,,1.0,,,,1.0,1.0,,1.0,0.8,0.9545454545454546,1.0,,0.8833333333333333,,1.0,0.4,0.8307692307692308,,,,,0.9259259259259259,,1.0,0.9090909090909091,1.0,,1.0,1.0,0.75,1.0,1.0,,,1.0,0.9444444444444444,,,,,1.0,0.6666666666666666,1.0,1.0,0.9183673469387755,1.0,,0.6666666666666666,0.9285714285714286,0.375,1.0,,0.9,0.6666666666666666,0.0,1.0,,,,,1.0,,1.0,1.0,1.0,0.0,,0.9722222222222222,0.8,1.0,1.0,1.0,1.0,,0.9795918367346939,1.0,,,1.0,0.8333333333333334,0.875,,1.0,0.0,1.0,,1.0,1.0,1.0,,0.75,,1.0,1.0,,,1.0,0.9782608695652174,1.0,,,0.75,1.0,1.0,,,0.75,,1.0,0.98989898989899,1.0,0.7258064516129032,,0.0,0.989247311827957,0.0,1.0,1.0,,1.0,0.8333333333333334,,,,1.0,,1.0,1.0,,0.7567567567567568,,,,,1.0,,1.0,1.0,0.7894736842105263,,0.918918918918919,,,0.9875,1.0,1.0,0.5,1.0,1.0,,1.0,1.0,0.65,1.0,1.0,1.0,1.0,,1.0,1.0,1.0,0.8571428571428571,,0.8461538461538461,0.5,1.0,1.0,1.0,0.9444444444444444,,,1.0,1.0,0.7297297297297297,1.0,0.6666666666666666,1.0,1.0,,,1.0,1.0,,1.0,1.0,,0.9375,,0.8518518518518519,,1.0,1.0,,1.0,1.0,1.0,,1.0,0.5,0.927536231884058,1.0,0.8333333333333334,1.0,0.6226415094339622,0.9253731343283582,,0.8333333333333334,,1.0,1.0,0.0,1.0,,0.8809523809523809,0.9512195121951219,1.0,1.0,1.0,1.0,,,,1.0,1.0,1.0,0.5,,1.0,1.0,1.0,0.5,1.0,,1.0,1.0,0.8823529411764706,0.2857142857142857,0.9230769230769231,1.0,,,1.0,,1.0,1.0,,1.0,0.6842105263157895,0.6666666666666666,,,1.0,,1.0,1.0,,0.9583333333333334,1.0,,1.0,0.967741935483871,1.0,,1.0,0.9375,0.75,1.0,0.875,,1.0,,1.0,0.8,,1.0,0.6666666666666666,0.0,0.9871794871794872,1.0,,1.0,1.0,1.0,,,0.0,,,0.9090909090909091,1.0,1.0,,1.0,,1.0,,0.0,1.0,0.875,0.5,,1.0,0.7777777777777778,,1.0,0.9090909090909091,1.0,1.0,1.0,0.0,1.0,1.0,1.0,
2017-01-23,0.896551724137931,0.7333333333333333,0.0,,1.0,0.375,1.0,1.0,0.6666666666666666,,1.0,1.0,0.8,0.6666666666666666,0.8461538461538461,0.7857142857142857,1.0,1.0,1.0,0.7272727272727273,0.8333333333333334,1.0,,1.0,1.0,1.0,,1.0,1.0,0.9622641509433962,1.0,0.967741935483871,1.0,1.0,1.0,0.7142857142857143,,1.0,1.0,0.4,1.0,0.6666666666666666,,0.875,1.0,,1.0,0.8571428571428571,1.0,1.0,1.0,1.0,0.9423076923076923,0.8888888888888888,1.0,0.8888888888888888,0.6226415094339622,1.0,1.0,0.8214285714285714,0.9444444444444444,0.7142857142857143,0.9591836734693877,0.8571428571428571,0.8596491228070176,1.0,0.8636363636363636,0.8181818181818182,1.0,0.8913043478260869,0.72,0.7692307692307693,1.0,1.0,1.0,,1.0,1.0,0.75,1.0,1.0,1.0,1.0,1.0,0.7333333333333333,,1.0,1.0,0.7777777777777778,0.9,1.0,1.0,1.0,,1.0,1.0,0.0,,0.4444444444444444,1.0,0.8360655737704918,0.95,1.0,,1.0,1.0,0.5,0.625,1.0,1.0,0.88,1.0,,0.9166666666666666,,1.0,1.0,0.7857142857142857,1.0,0.75,1.0,1.0,1.0,1.0,1.0,0.9206349206349206,1.0,1.0,0.8823529411764706,0.9,1.0,1.0,0.8823529411764706,1.0,1.0,0.5,1.0,0.0,0.8,1.0,1.0,0.0,1.0,1.0,0.7804878048780488,1.0,1.0,0.25,1.0,0.9591836734693877,1.0,0.7049180327868853,1.0,,1.0,0.75,0.8571428571428571,,,1.0,0.9787234042553191,0.8928571428571429,1.0,0.7,1.0,1.0,1.0,1.0,1.0,0.8333333333333334,1.0,1.0,0.0,0.8936170212765957,1.0,1.0,1.0,0.5,1.0,,1.0,1.0,1.0,1.0,1.0,,1.0,1.0,1.0,1.0,1.0,0.5,0.8823529411764706,1.0,1.0,1.0,0.7727272727272727,0.8974358974358975,0.8260869565217391,0.8333333333333334,0.864406779661017,,,0.6666666666666666,0.7777777777777778,1.0,1.0,,1.0,1.0,1.0,1.0,0.9090909090909091,1.0,0.8,1.0,0.5,0.6666666666666666,0.6666666666666666,0.8571428571428571,1.0,1.0,1.0,1.0,1.0,,1.0,1.0,,1.0,1.0,0.5,0.9642857142857143,1.0,,,0.9090909090909091,0.7,0.9384615384615385,1.0,0.696969696969697,1.0,1.0,1.0,1.0,,1.0,1.0,1.0,,0.5,0.875,0.6,1.0,,0.9508196721311475,0.8888888888888888,0.7777777777777778,0.6666666666666666,1.0,0.8571428571428571,1.0,0.8333333333333334,0.8888888888888888,1.0,,,1.0,0.9166666666666666,,,1.0,1.0,1.0,1.0,0.8,1.0,,1.0,0.0,1.0,1.0,0.3333333333333333,1.0,1.0,0.7592592592592593,1.0,0.9166666666666666,,0.8,0.9166666666666666,1.0,,1.0,0.8285714285714286,0.5,0.8888888888888888,0.8939393939393939,1.0,0.9137931034482759,,1.0,0.9583333333333334,1.0,1.0,0.9318181818181818,1.0,1.0,0.7692307692307693,1.0,,,,1.0,1.0,0.875,1.0,0.8392857142857143,1.0,,1.0,1.0,0.8857142857142857,1.0,1.0,0.9333333333333333,0.9215686274509803,,0.8,1.0,0.5,0.9777777777777777,0.6666666666666666,1.0,1.0,,0.8333333333333334,1.0,0.9090909090909091,0.3333333333333333,0.7391304347826086,0.6666666666666666,0.8181818181818182,0.8947368421052632,0.8571428571428571,,1.0,0.3333333333333333,0.875,1.0,0.8333333333333334,0.4444444444444444,0.3333333333333333,1.0,1.0,1.0,0.8888888888888888,1.0,1.0,1.0,1.0,0.6060606060606061,1.0,1.0,1.0,0.8666666666666667,1.0,,0.9090909090909091,0.0,,1.0,0.875,,,1.0,0.8793103448275862,,1.0,0.6,0.0,0.0,,1.0,1.0,1.0,0.5384615384615384,0.9069767441860465,1.0,1.0,1.0,0.7555555555555555,0.9230769230769231,1.0,1.0,1.0,0.76,0.8181818181818182,1.0,1.0,,1.0,0.8571428571428571,0.6666666666666666,1.0,1.0,,,1.0,1.0,1.0,1.0,1.0,1.0,1.0,0.9375,1.0,0.6666666666666666,0.6842105263157895,1.0,1.0,1.0,1.0,0.9090909090909091,0.7142857142857143,0.9354838709677419,1.0,,1.0,1.0,1.0,0.9333333333333333,0.8,0.8571428571428571,1.0,0.711864406779661,0.5,0.6,,0.7142857142857143,,1.0,,1.0,0.972972972972973,0.6666666666666666,,0.8076923076923077,0.6285714285714286,0.75,,0.9473684210526315,0.9210526315789473,1.0,0.9305555555555556,0.5384615384615384,1.0,1.0,1.0,1.0,1.0,1.0,1.0,1.0,0.0,0.9705882352941176,,1.0,1.0,0.8775510204081632,0.0,1.0,0.3333333333333333,0.75,1.0,,1.0,1.0,1.0,,0.0,,0.9090909090909091,1.0,1.0,1.0,0.603448275862069,1.0,1.0,,0.875,,0.85,1.0,1.0,1.0,0.875,1.0,1.0,0.90625,1.0,1.0
2017-01-24,1.0,0.9,0.6428571428571429,,1.0,0.2,1.0,0.8,1.0,,1.0,,0.8297872340425532,1.0,0.8666666666666667,0.8095238095238095,1.0,1.0,1.0,0.7272727272727273,1.0,1.0,1.0,1.0,1.0,,,0.8571428571428571,1.0,0.9523809523809523,1.0,0.7916666666666666,,1.0,,1.0,,1.0,,0.3333333333333333,1.0,1.0,0.5,0.5,0.0,1.0,1.0,,1.0,1.0,1.0,1.0,0.8095238095238095,1.0,1.0,0.9166666666666666,0.48214285714285715,,0.5,0.8571428571428571,0.6153846153846154,0.0,0.9473684210526315,1.0,0.8181818181818182,1.0,1.0,0.8,,0.98,0.4,0.7083333333333334,0.8333333333333334,0.8333333333333334,1.0,,1.0,0.9655172413793104,0.8095238095238095,1.0,1.0,1.0,,0.8,0.8888888888888888,1.0,,1.0,1.0,1.0,0.4,0.9090909090909091,0.8,,0.0,,1.0,,0.8148148148148148,1.0,0.8947368421052632,0.9545454545454546,1.0,0.75,1.0,1.0,1.0,0.5,,1.0,0.9444444444444444,1.0,,0.6428571428571429,0.0,1.0,0.16666666666666666,0.8333333333333334,1.0,1.0,1.0,0.25,1.0,1.0,1.0,0.9861111111111112,1.0,1.0,0.9090909090909091,1.0,1.0,1.0,0.9152542372881356,0.3333333333333333,0.75,1.0,1.0,0.0,0.7631578947368421,1.0,1.0,,0.4444444444444444,1.0,0.6730769230769231,1.0,1.0,,0.8571428571428571,0.9795918367346939,1.0,0.5428571428571428,1.0,1.0,1.0,1.0,0.7872340425531915,1.0,,0.9333333333333333,0.9344262295081968,0.8448275862068966,,0.6851851851851852,1.0,0.6666666666666666,1.0,,0.9285714285714286,0.7222222222222222,0.8717948717948718,0.6666666666666666,1.0,0.6612903225806451,1.0,1.0,1.0,1.0,1.0,0.5,1.0,0.8,1.0,0.25,1.0,0.8,1.0,1.0,0.7272727272727273,,1.0,1.0,0.6363636363636364,1.0,,1.0,0.6785714285714286,0.75,0.5789473684210527,,0.8870967741935484,0.0,0.5,1.0,0.7142857142857143,0.6666666666666666,1.0,,1.0,0.9565217391304348,0.8,1.0,1.0,1.0,1.0,0.8863636363636364,0.875,0.9090909090909091,0.8571428571428571,0.8,1.0,,1.0,1.0,1.0,1.0,,,1.0,1.0,1.0,0.9230769230769231,0.9038461538461539,1.0,1.0,1.0,0.7142857142857143,0.8666666666666667,0.9056603773584906,0.5,0.7931034482758621,0.7777777777777778,1.0,1.0,0.9,,1.0,0.875,1.0,,0.9090909090909091,1.0,0.5714285714285714,1.0,1.0,0.875,0.9090909090909091,0.4444444444444444,1.0,1.0,1.0,1.0,0.8108108108108109,0.8,1.0,,1.0,0.7058823529411765,0.9285714285714286,1.0,1.0,0.875,1.0,0.0,0.6666666666666666,1.0,1.0,1.0,0.5,0.0,1.0,1.0,1.0,1.0,1.0,0.8837209302325582,0.9215686274509803,0.7619047619047619,1.0,0.7647058823529411,0.9032258064516129,0.0,1.0,0.75,0.7761194029850746,1.0,0.9444444444444444,0.9647058823529412,1.0,0.9142857142857143,1.0,1.0,1.0,1.0,0.8461538461538461,0.9473684210526315,,0.7142857142857143,0.8571428571428571,1.0,1.0,,,1.0,0.6666666666666666,0.7906976744186046,1.0,0.8867924528301887,1.0,1.0,1.0,1.0,0.7068965517241379,1.0,1.0,0.5714285714285714,0.8571428571428571,0.6666666666666666,1.0,0.8,0.3333333333333333,0.8939393939393939,0.7941176470588235,0.8888888888888888,0.3333333333333333,0.2857142857142857,1.0,1.0,0.9230769230769231,1.0,0.75,1.0,1.0,0.8125,0.9090909090909091,,1.0,1.0,0.7777777777777778,1.0,1.0,0.5,0.16666666666666666,1.0,0.6666666666666666,1.0,1.0,1.0,,1.0,1.0,0.7586206896551724,0.8,1.0,1.0,0.8888888888888888,,1.0,1.0,1.0,0.75,0.8148148148148148,1.0,1.0,1.0,,0.8055555555555556,0.0,0.625,0.6363636363636364,,1.0,,1.0,,1.0,0.4375,0.9107142857142857,0.5,1.0,0.90625,0.8181818181818182,0.8205128205128205,1.0,0.625,1.0,0.972972972972973,0.8888888888888888,1.0,0.8,1.0,0.8333333333333334,0.9066666666666666,,1.0,1.0,1.0,1.0,1.0,1.0,1.0,1.0,1.0,1.0,1.0,0.9473684210526315,0.9333333333333333,1.0,0.6470588235294118,1.0,1.0,0.8181818181818182,1.0,1.0,0.5,0.8070175438596491,1.0,1.0,,1.0,1.0,1.0,1.0,0.8695652173913043,1.0,0.4444444444444444,1.0,0.6666666666666666,,0.9,1.0,,0.3333333333333333,,0.8888888888888888,1.0,1.0,0.9777777777777777,0.6875,1.0,,0.9459459459459459,0.9285714285714286,1.0,0.94,0.8571428571428571,1.0,0.16666666666666666,1.0,1.0,0.7,1.0,1.0,0.6,0.0,0.978494623655914,1.0,0.5,,0.78,1.0,1.0,1.0,0.8333333333333334,,1.0,1.0,0.5,1.0,,0.9,,0.8,1.0,0.5,1.0,0.8,0.875,1.0,1.0,0.7777777777777778,1.0,0.9649122807017544,1.0,0.5,1.0,0.9285714285714286,1.0,0.75,0.9122807017543859,0.9444444444444444,1.0
2017-01-25,1.0,0.7692307692307693,0.25,,0.9,0.125,1.0,,,,1.0,1.0,0.9230769230769231,1.0,0.9047619047619048,0.9583333333333334,1.0,0.8333333333333334,1.0,0.8333333333333334,0.5,1.0,1.0,1.0,,1.0,0.9090909090909091,1.0,1.0,0.92,,0.9,1.0,1.0,0.0,0.0,1.0,1.0,0.5,1.0,0.0,0.6923076923076923,,1.0,1.0,1.0,1.0,,,1.0,0.6666666666666666,,0.9354838709677419,1.0,1.0,0.875,0.5471698113207547,1.0,1.0,0.7843137254901961,0.875,1.0,0.9154929577464789,1.0,0.8421052631578947,1.0,1.0,0.8333333333333334,1.0,0.8392857142857143,0.875,0.8571428571428571,1.0,0.8571428571428571,1.0,1.0,0.875,1.0,1.0,1.0,0.8571428571428571,1.0,,1.0,0.875,1.0,0.0,0.0,0.75,,0.0,0.9259259259259259,1.0,,1.0,0.0,0.9,,0.7777777777777778,0.7142857142857143,0.9888888888888889,1.0,0.7272727272727273,0.75,0.8,1.0,1.0,0.7,,1.0,0.8478260869565217,1.0,,1.0,1.0,,1.0,1.0,1.0,0.5,0.9411764705882353,1.0,,1.0,0.4,0.9344262295081968,1.0,1.0,0.75,1.0,,1.0,0.9636363636363636,1.0,1.0,1.0,,0.25,1.0,1.0,1.0,,0.7692307692307693,0.6666666666666666,0.75,0.7894736842105263,0.9545454545454546,1.0,0.5,1.0,1.0,0.8571428571428571,1.0,,1.0,0.625,0.6346153846153846,1.0,1.0,0.8888888888888888,0.9354838709677419,0.9305555555555556,1.0,0.6875,,1.0,0.3333333333333333,,0.9032258064516129,0.9166666666666666,1.0,1.0,0.8947368421052632,0.9152542372881356,1.0,1.0,1.0,1.0,0.5,1.0,1.0,1.0,1.0,1.0,1.0,1.0,1.0,1.0,1.0,1.0,,1.0,0.7777777777777778,1.0,1.0,1.0,0.6363636363636364,0.8095238095238095,0.6875,1.0,0.7924528301886793,1.0,1.0,0.5,0.7222222222222222,,1.0,,0.5,0.9714285714285714,1.0,1.0,1.0,1.0,0.9333333333333333,0.9130434782608695,0.5,0.7916666666666666,0.52,1.0,,1.0,,0.8571428571428571,,1.0,1.0,,1.0,0.4,,0.9,0.9384615384615385,1.0,1.0,0.9090909090909091,1.0,0.8846153846153846,0.9166666666666666,0.0,0.8,0.7142857142857143,0.8,1.0,0.8571428571428571,,1.0,1.0,1.0,,0.7017543859649122,0.7419354838709677,0.8,0.5714285714285714,,0.94,0.8666666666666667,0.8,1.0,1.0,1.0,0.75,0.9882352941176471,1.0,,,0.5,0.75,0.9411764705882353,1.0,1.0,1.0,1.0,,1.0,0.9166666666666666,0.9444444444444444,1.0,0.96,,0.8,0.5,1.0,1.0,,0.9444444444444444,0.9322033898305084,1.0,1.0,0.6666666666666666,0.9166666666666666,1.0,,,0.85,1.0,0.8888888888888888,0.7636363636363637,0.9473684210526315,0.75,,1.0,0.9324324324324325,1.0,1.0,0.8387096774193549,1.0,0.8333333333333334,0.9473684210526315,1.0,,,0.5,,0.5,0.9090909090909091,0.8823529411764706,0.8269230769230769,1.0,1.0,0.8108108108108109,1.0,0.7037037037037037,0.0,1.0,0.8666666666666667,0.8444444444444444,,0.8,0.8461538461538461,0.3333333333333333,0.9661016949152542,1.0,1.0,0.8,1.0,1.0,1.0,0.8333333333333334,1.0,0.6470588235294118,0.5,1.0,1.0,0.8571428571428571,,1.0,0.9583333333333334,0.8823529411764706,1.0,0.7142857142857143,0.5714285714285714,0.45454545454545453,,,1.0,0.8823529411764706,0.42857142857142855,,1.0,1.0,0.6222222222222222,0.7272727272727273,1.0,0.8636363636363636,1.0,,,0.9047619047619048,1.0,0.8,0.8,0.5714285714285714,1.0,0.8333333333333334,0.6666666666666666,0.819672131147541,1.0,0.9230769230769231,0.7777777777777778,,1.0,,1.0,,0.9473684210526315,0.35294117647058826,0.8627450980392157,1.0,1.0,0.9,0.7894736842105263,0.9534883720930233,,0.6666666666666666,1.0,0.8205128205128205,0.9333333333333333,1.0,0.5,0.0,0.8536585365853658,0.8448275862068966,1.0,0.625,1.0,1.0,1.0,,0.6666666666666666,0.8333333333333334,1.0,1.0,0.6538461538461539,1.0,0.95,1.0,1.0,0.6363636363636364,1.0,1.0,1.0,1.0,1.0,0.3333333333333333,0.875,0.9230769230769231,0.6666666666666666,1.0,0.0,1.0,1.0,0.9130434782608695,0.95,1.0,0.647887323943662,0.6666666666666666,1.0,,0.9230769230769231,0.6666666666666666,1.0,1.0,,0.9583333333333334,1.0,,1.0,0.7857142857142857,0.8333333333333334,,0.9393939393939394,0.9411764705882353,1.0,0.9166666666666666,0.7777777777777778,0.6666666666666666,0.8,1.0,1.0,0.5,1.0,0.8333333333333334,0.8571428571428571,0.4444444444444444,0.8888888888888888,,1.0,1.0,0.8958333333333334,0.0,1.0,0.8571428571428571,,0.8333333333333334,1.0,0.875,0.6666666666666666,1.0,,0.8333333333333334,,1.0,,1.0,1.0,0.85,1.0,1.0,1.0,0.7333333333333333,,0.9736842105263158,1.0,1.0,1.0,0.9523809523809523,1.0,,0.84,1.0,1.0
2017-01-26,0.9285714285714286,0.8235294117647058,0.5555555555555556,,1.0,0.16666666666666666,1.0,,0.5,,1.0,0.9,1.0,,0.8857142857142857,0.9464285714285714,1.0,1.0,1.0,0.875,1.0,1.0,1.0,,1.0,1.0,0.875,0.9,0.8,0.8888888888888888,1.0,0.7894736842105263,0.0,1.0,1.0,1.0,1.0,1.0,0.8571428571428571,1.0,1.0,0.5666666666666667,1.0,1.0,1.0,0.8,1.0,1.0,,1.0,,1.0,0.9545454545454546,1.0,1.0,0.7777777777777778,0.6730769230769231,1.0,,0.7714285714285715,0.7142857142857143,,0.90625,1.0,0.7727272727272727,1.0,0.9696969696969697,0.9655172413793104,1.0,0.9137931034482759,1.0,0.6818181818181818,1.0,0.8,0.5555555555555556,,1.0,1.0,0.0,0.8666666666666667,1.0,0.6,1.0,0.7333333333333333,1.0,,1.0,1.0,0.8461538461538461,1.0,1.0,0.7906976744186046,0.75,,1.0,1.0,0.8333333333333334,,0.8571428571428571,0.5,0.921875,1.0,0.5714285714285714,0.9117647058823529,,1.0,0.5,0.543859649122807,,1.0,0.9090909090909091,1.0,0.6666666666666666,0.7631578947368421,0.9285714285714286,,0.8823529411764706,1.0,1.0,,0.975609756097561,1.0,1.0,0.8,0.890625,0.863013698630137,,0.8,0.75,0.75,1.0,0.8571428571428571,0.9090909090909091,0.6363636363636364,,0.5,,0.38095238095238093,0.9166666666666666,1.0,0.7142857142857143,,1.0,1.0,0.8245614035087719,1.0,0.45454545454545453,1.0,,0.8571428571428571,0.7619047619047619,0.6956521739130435,1.0,1.0,0.5384615384615384,1.0,0.5172413793103449,,,0.9090909090909091,1.0,0.921875,0.7777777777777778,0.7755102040816326,,1.0,1.0,0.9090909090909091,1.0,0.9230769230769231,1.0,1.0,0.9666666666666667,0.9333333333333333,0.8333333333333334,,1.0,0.0,1.0,0.75,0.8,0.975609756097561,1.0,0.8571428571428571,0.4,1.0,1.0,1.0,1.0,1.0,,1.0,0.8113207547169812,0.9629629629629629,1.0,0.8461538461538461,0.8095238095238095,0.7777777777777778,0.9333333333333333,,0.864406779661017,1.0,,0.7142857142857143,0.9090909090909091,,1.0,,,0.8787878787878788,1.0,1.0,0.8888888888888888,1.0,0.8888888888888888,0.6666666666666666,0.7692307692307693,0.9473684210526315,0.6363636363636364,1.0,1.0,0.5,1.0,1.0,,,1.0,0.0,1.0,1.0,1.0,1.0,0.9425287356321839,1.0,0.5,1.0,1.0,0.7837837837837838,1.0,1.0,0.7586206896551724,0.8666666666666667,1.0,1.0,1.0,,0.6666666666666666,0.9285714285714286,0.9,,0.8,0.8148148148148148,0.5,0.6,1.0,0.8775510204081632,0.875,1.0,1.0,0.8571428571428571,0.8,0.7222222222222222,0.967032967032967,1.0,,1.0,1.0,0.95,0.9354838709677419,,0.8571428571428571,1.0,1.0,,,0.8823529411764706,1.0,1.0,1.0,,0.76,1.0,0.75,1.0,1.0,0.8059701492537313,0.9215686274509803,1.0,1.0,0.7142857142857143,0.9166666666666666,1.0,,1.0,0.9558823529411765,1.0,1.0,0.9324324324324325,1.0,0.8070175438596491,0.6666666666666666,1.0,0.8918918918918919,1.0,0.7142857142857143,0.9090909090909091,1.0,0.8333333333333334,0.7692307692307693,1.0,1.0,1.0,1.0,1.0,1.0,0.75,0.7142857142857143,0.7446808510638298,1.0,1.0,1.0,0.75,0.8518518518518519,,1.0,0.6,0.8695652173913043,0.3333333333333333,0.9642857142857143,1.0,0.8333333333333334,0.86,0.5,1.0,0.8571428571428571,0.6666666666666666,1.0,0.8333333333333334,0.9166666666666666,,0.75,1.0,1.0,0.9032258064516129,0.42857142857142855,,1.0,1.0,1.0,0.8,0.9166666666666666,1.0,0.48484848484848486,,0.8,0.4,0.9411764705882353,1.0,,1.0,1.0,0.7555555555555555,0.5555555555555556,0.3333333333333333,1.0,1.0,1.0,1.0,0.9090909090909091,1.0,0.9166666666666666,0.9487179487179487,1.0,0.8333333333333334,,0.8888888888888888,0.8484848484848485,1.0,1.0,0.3333333333333333,1.0,1.0,,0.6666666666666666,1.0,1.0,0.5714285714285714,0.9322033898305084,1.0,1.0,0.6363636363636364,0.7575757575757576,0.8409090909090909,,0.75,,0.9166666666666666,0.9166666666666666,0.9130434782608695,1.0,0.0,0.9166666666666666,0.9827586206896551,1.0,1.0,1.0,0.6666666666666666,1.0,1.0,1.0,1.0,0.8571428571428571,1.0,0.7959183673469388,0.5714285714285714,1.0,1.0,1.0,1.0,1.0,1.0,1.0,1.0,0.8125,,0.8846153846153846,,1.0,1.0,,1.0,1.0,0.8333333333333334,0.7647058823529411,1.0,0.660377358490566,1.0,1.0,,1.0,1.0,1.0,0.5714285714285714,1.0,0.85,1.0,1.0,1.0,0.8333333333333334,0.8461538461538461,,1.0,0.9090909090909091,0.8823529411764706,0.8888888888888888,0.9411764705882353,0.9375,0.8421052631578947,,1.0,0.7142857142857143,0.0,1.0,1.0,0.2,0.945054945054945,1.0,0.7142857142857143,1.0,0.8863636363636364,,1.0,0.7857142857142857,0.8,0.9444444444444444,1.0,0.875,0.75,,,1.0,,1.0,,1.0,1.0,0.78,0.8888888888888888,1.0,1.0,0.8333333333333334,1.0,0.971830985915493,1.0,1.0,0.9090909090909091,1.0,,,0.9464285714285714,1.0,1.0
2017-01-27,0.875,0.5555555555555556,0.875,,1.0,0.2727272727272727,1.0,1.0,,,,1.0,1.0,0.8888888888888888,1.0,0.9104477611940298,1.0,0.75,,1.0,0.8,1.0,1.0,1.0,,1.0,0.8333333333333334,0.7857142857142857,1.0,0.7333333333333333,1.0,0.8918918918918919,1.0,0.9411764705882353,1.0,0.8,1.0,1.0,1.0,,0.9285714285714286,0.7,1.0,0.5,0.875,1.0,0.6666666666666666,1.0,,1.0,,1.0,0.9487179487179487,0.8333333333333334,1.0,0.8,0.5094339622641509,1.0,0.5,0.7,0.8235294117647058,1.0,0.875,0.6666666666666666,0.6875,1.0,0.7833333333333333,0.9285714285714286,0.9230769230769231,0.9242424242424242,0.9333333333333333,0.6875,0.7777777777777778,0.7333333333333333,0.75,1.0,,0.8518518518518519,1.0,1.0,0.6666666666666666,1.0,1.0,1.0,1.0,1.0,1.0,,1.0,1.0,0.4,0.7777777777777778,0.8571428571428571,1.0,0.75,1.0,1.0,,0.6666666666666666,0.5,0.9743589743589743,0.9230769230769231,0.96875,0.9090909090909091,,0.0,0.0,0.5098039215686274,,1.0,0.864406779661017,,1.0,0.9,0.9,1.0,,1.0,0.5,1.0,0.7777777777777778,0.3333333333333333,0.0,0.7142857142857143,0.7837837837837838,0.8481012658227848,0.8333333333333334,0.8,0.8571428571428571,1.0,1.0,0.2,0.9411764705882353,0.75,1.0,,,1.0,0.6,1.0,1.0,0.5,1.0,0.75,0.7192982456140351,1.0,1.0,0.5,1.0,0.75,0.5714285714285714,0.7586206896551724,1.0,,1.0,0.375,0.4418604651162791,1.0,,0.95,0.9210526315789473,0.8709677419354839,0.7931034482758621,0.8909090909090909,1.0,0.25,1.0,1.0,0.7619047619047619,0.8666666666666667,1.0,0.6,0.8,0.7910447761194029,1.0,,1.0,1.0,,1.0,1.0,1.0,1.0,0.8571428571428571,0.6,1.0,1.0,1.0,1.0,0.0,,1.0,0.828125,0.9230769230769231,,1.0,0.6333333333333333,0.7931034482758621,0.8125,1.0,0.8,1.0,1.0,1.0,0.8166666666666667,,1.0,,1.0,0.9655172413793104,1.0,1.0,0.8125,,1.0,0.7142857142857143,0.8709677419354839,1.0,0.7222222222222222,0.8,1.0,1.0,,1.0,0.5,1.0,1.0,1.0,1.0,,1.0,1.0,0.8985507246376812,0.8181818181818182,1.0,1.0,0.4444444444444444,0.627906976744186,1.0,0.0,0.7666666666666667,0.8823529411764706,1.0,0.6666666666666666,1.0,,1.0,1.0,1.0,,0.8,0.6666666666666666,1.0,1.0,1.0,0.9629629629629629,1.0,1.0,0.8,1.0,1.0,0.75,0.868421052631579,1.0,1.0,,1.0,0.7777777777777778,0.8095238095238095,1.0,1.0,0.9375,0.0,,1.0,0.90625,0.6666666666666666,,1.0,,1.0,0.0,1.0,,1.0,0.8936170212765957,0.9629629629629629,1.0,0.5,0.5,1.0,1.0,,,0.9523809523809523,1.0,0.8333333333333334,0.9324324324324325,0.6666666666666666,0.8333333333333334,,,0.9375,1.0,1.0,0.9583333333333334,0.8,0.8809523809523809,0.9523809523809523,,1.0,,,,1.0,0.813953488372093,0.8181818181818182,0.8181818181818182,,0.0,0.9230769230769231,,0.9090909090909091,,1.0,1.0,0.6818181818181818,,0.8157894736842105,0.8461538461538461,,0.8979591836734694,1.0,1.0,1.0,1.0,0.5,0.9166666666666666,1.0,0.5,0.7,1.0,1.0,0.8695652173913043,0.5714285714285714,1.0,1.0,1.0,0.875,0.5,1.0,0.6,0.25,,,1.0,0.9444444444444444,1.0,,1.0,,0.6976744186046512,1.0,1.0,1.0,1.0,,1.0,0.9285714285714286,,1.0,0.9361702127659575,0.6666666666666666,0.75,1.0,,0.8852459016393442,0.75,1.0,0.23809523809523808,1.0,1.0,,0.5,1.0,1.0,0.8571428571428571,0.9166666666666666,1.0,1.0,0.5,0.75,0.8367346938775511,,1.0,1.0,0.7948717948717948,1.0,1.0,0.8571428571428571,,0.8301886792452831,0.9056603773584906,1.0,1.0,0.5,1.0,1.0,1.0,1.0,1.0,1.0,1.0,0.9166666666666666,,0.9285714285714286,0.9444444444444444,0.8571428571428571,0.8333333333333334,1.0,,1.0,1.0,0.875,1.0,0.8125,1.0,1.0,,1.0,1.0,1.0,0.8571428571428571,0.7857142857142857,1.0,0.6551724137931034,1.0,1.0,1.0,1.0,1.0,1.0,0.38095238095238093,1.0,0.9,0.6666666666666666,,1.0,1.0,0.75,,1.0,1.0,0.6666666666666666,1.0,0.9166666666666666,1.0,0.8,,1.0,1.0,0.6666666666666666,1.0,1.0,0.5,0.875,1.0,1.0,0.5,0.9743589743589743,,1.0,0.875,0.5,1.0,,1.0,1.0,,,0.8947368421052632,,1.0,1.0,1.0,1.0,0.6935483870967742,0.9,1.0,,0.9375,1.0,0.967741935483871,0.9411764705882353,1.0,0.6666666666666666,1.0,1.0,0.5,0.9333333333333333,1.0,0.9523809523809523
2017-01-28,1.0,1.0,,,1.0,0.6666666666666666,1.0,,1.0,,,,1.0,0.7142857142857143,1.0,1.0,1.0,,,1.0,0.8,1.0,,,1.0,,1.0,1.0,1.0,1.0,,0.9090909090909091,,0.9230769230769231,0.75,1.0,1.0,,1.0,,,0.5,,1.0,1.0,0.9,,,1.0,0.0,0.5,1.0,1.0,1.0,,1.0,0.6041666666666666,1.0,1.0,0.6666666666666666,0.9285714285714286,1.0,0.88,1.0,0.7692307692307693,1.0,0.9090909090909091,0.9285714285714286,1.0,0.9855072463768116,,0.7592592592592593,1.0,1.0,1.0,,,1.0,,1.0,0.6666666666666666,,1.0,0.3333333333333333,1.0,,,,1.0,1.0,0.0,0.9230769230769231,1.0,1.0,,1.0,,,0.0,,1.0,1.0,1.0,1.0,1.0,0.5,1.0,0.4909090909090909,0.5,1.0,0.896551724137931,,,0.0,1.0,,1.0,,1.0,1.0,,1.0,,1.0,0.9166666666666666,0.890625,1.0,1.0,0.5,,1.0,,0.9726027397260274,1.0,,,,1.0,1.0,1.0,,,0.0,1.0,0.71875,1.0,1.0,1.0,,1.0,1.0,0.7446808510638298,,,1.0,1.0,0.9259259259259259,1.0,,1.0,0.9743589743589743,0.8852459016393442,1.0,0.7142857142857143,0.5,0.5,,1.0,1.0,1.0,1.0,1.0,1.0,0.8461538461538461,,,1.0,0.0,0.6666666666666666,,0.0,0.6666666666666666,1.0,1.0,1.0,,1.0,1.0,,,0.5,0.0,0.7878787878787878,1.0,,1.0,0.6666666666666666,0.75,0.75,,0.7971014492753623,,,1.0,0.8082191780821918,,,,,0.7777777777777778,0.5,1.0,1.0,1.0,1.0,1.0,0.4,1.0,1.0,1.0,1.0,,,0.8571428571428571,,,1.0,1.0,1.0,1.0,1.0,,0.9444444444444444,0.8,,,1.0,0.6774193548387096,1.0,,0.8125,0.9,,,1.0,,1.0,0.0,1.0,,0.6666666666666666,1.0,1.0,1.0,1.0,0.9615384615384616,0.7142857142857143,,1.0,0.75,1.0,1.0,0.9166666666666666,1.0,0.0,,,0.8571428571428571,1.0,0.0,,1.0,,,1.0,1.0,,,1.0,,1.0,,1.0,,,0.75,1.0,,,0.42857142857142855,0.8461538461538461,1.0,,,0.96875,,0.8571428571428571,0.9523809523809523,1.0,0.9137931034482759,,,0.9880952380952381,,1.0,0.9642857142857143,1.0,0.9230769230769231,0.625,,1.0,0.0,1.0,,,0.8571428571428571,1.0,0.6956521739130435,1.0,,0.0,,0.9166666666666666,,1.0,1.0,0.8387096774193549,,1.0,1.0,0.6666666666666666,0.9534883720930233,,,1.0,1.0,,1.0,1.0,,0.7222222222222222,1.0,1.0,0.9375,0.8888888888888888,,1.0,1.0,0.5555555555555556,,1.0,1.0,0.0,1.0,,0.0,0.8,,0.0,1.0,,0.8333333333333334,0.5,1.0,,1.0,,,1.0,,1.0,0.9565217391304348,1.0,1.0,,0.0,0.8780487804878049,1.0,1.0,1.0,,1.0,,1.0,,1.0,0.0,0.9056603773584906,1.0,0.0,1.0,0.6363636363636364,0.7368421052631579,,0.6666666666666666,,0.875,1.0,1.0,1.0,,0.9767441860465116,0.975,1.0,1.0,1.0,,,,,,,1.0,1.0,,0.75,1.0,1.0,0.5714285714285714,1.0,,,1.0,1.0,1.0,0.9791666666666666,,1.0,,,1.0,1.0,0.5,0.8666666666666667,1.0,0.6875,,1.0,1.0,1.0,0.75,1.0,0.3333333333333333,0.0,0.8125,0.5,,0.5,1.0,1.0,,1.0,1.0,0.5,1.0,0.7692307692307693,,0.6363636363636364,1.0,,,,1.0,,0.16666666666666666,0.8941176470588236,,1.0,0.0,0.88,,1.0,1.0,,1.0,1.0,1.0,0.5,0.0,,0.8571428571428571,,1.0,,1.0,1.0,0.7714285714285715,1.0,0.0,,0.6,1.0,0.9166666666666666,1.0,0.8666666666666667,0.75,1.0,,1.0,1.0,1.0,0.75
2017-01-29,0.75,0.75,0.0,,1.0,0.6,,1.0,1.0,,1.0,,1.0,1.0,0.8888888888888888,1.0,1.0,0.25,1.0,1.0,0.5,1.0,0.0,,1.0,1.0,0.5,1.0,1.0,,1.0,1.0,0.5,1.0,1.0,1.0,,1.0,1.0,0.3333333333333333,1.0,,,,,,1.0,,,,,,0.9523809523809523,,,,0.6511627906976745,,,0.5555555555555556,1.0,1.0,0.9102564102564102,1.0,0.6607142857142857,1.0,0.9230769230769231,0.85,,0.9206349206349206,,0.6842105263157895,1.0,0.7142857142857143,0.5,,1.0,1.0,1.0,0.875,1.0,,0.8571428571428571,1.0,1.0,,,,1.0,1.0,0.625,0.75,1.0,,,,1.0,,0.8,,0.6875,0.75,1.0,1.0,,,0.0,0.6666666666666666,,1.0,0.9117647058823529,,,1.0,,,1.0,1.0,,,1.0,1.0,,,1.0,0.9710144927536232,0.0,,0.75,,,1.0,0.9090909090909091,0.0,,,,,1.0,1.0,,,1.0,1.0,0.6481481481481481,,,1.0,,0.9090909090909091,,0.7551020408163265,,1.0,1.0,0.8,1.0,0.0,,1.0,0.9411764705882353,0.9272727272727272,0.3333333333333333,0.6129032258064516,0.5,0.6666666666666666,,,1.0,1.0,0.75,,1.0,0.9259259259259259,,,1.0,1.0,,,,1.0,,1.0,,,1.0,1.0,,,1.0,,1.0,1.0,1.0,,0.8,1.0,1.0,0.0,0.8115942028985508,,,1.0,0.8135593220338984,,1.0,,,0.9523809523809523,,,1.0,,1.0,,1.0,1.0,0.8571428571428571,1.0,0.5,1.0,,1.0,1.0,,,,1.0,1.0,,1.0,0.925,1.0,,,,0.6666666666666666,1.0,,0.6666666666666666,0.75,1.0,,0.0,,1.0,,1.0,,0.0,1.0,,1.0,,0.9545454545454546,1.0,,1.0,1.0,1.0,1.0,0.9,1.0,1.0,,,0.9230769230769231,1.0,,,1.0,,,1.0,1.0,,1.0,,,1.0,,,,1.0,0.7727272727272727,1.0,1.0,1.0,0.6666666666666666,0.9230769230769231,1.0,1.0,0.0,0.8870967741935484,,0.7142857142857143,0.9259259259259259,1.0,0.7894736842105263,1.0,,0.974025974025974,,1.0,0.9444444444444444,,1.0,0.9,1.0,,0.5,,,,0.9,1.0,0.8378378378378378,,,1.0,1.0,0.6428571428571429,,,1.0,0.7083333333333334,,0.5,,0.75,0.8490566037735849,0.6666666666666666,,1.0,,0.5,0.75,1.0,,0.7857142857142857,1.0,,1.0,1.0,1.0,,1.0,0.5,,1.0,1.0,,,1.0,1.0,0.4,1.0,,1.0,,0.7547169811320755,1.0,1.0,1.0,0.0,,,1.0,1.0,1.0,0.9,1.0,1.0,,1.0,0.9152542372881356,,0.8,,,,,,,0.8,1.0,0.8958333333333334,,,1.0,1.0,0.8,,0.6666666666666666,,0.9333333333333333,1.0,,1.0,,1.0,1.0,1.0,1.0,1.0,,,,,,,1.0,0.8571428571428571,,0.8,1.0,1.0,1.0,1.0,,0.5,1.0,1.0,0.5,1.0,1.0,,0.0,1.0,,1.0,1.0,1.0,0.9230769230769231,0.6724137931034483,1.0,0.5,,1.0,0.0,,0.0,,1.0,0.75,,1.0,1.0,1.0,,0.75,1.0,1.0,1.0,0.9411764705882353,,0.5,0.0,1.0,,1.0,0.3333333333333333,0.8,0.0,0.9565217391304348,,1.0,1.0,0.9583333333333334,,,1.0,1.0,,1.0,0.75,,1.0,,1.0,,1.0,,1.0,,0.7058823529411765,1.0,1.0,0.0,1.0,,1.0,,1.0,1.0,0.0,,1.0,0.92,1.0,0.8333333333333334
2017-01-31,0.8,0.8636363636363636,0.42857142857142855,,1.0,0.0,1.0,0.5,,,,,0.6666666666666666,0.9615384615384616,1.0,0.8541666666666666,0.8461538461538461,1.0,,0.8461538461538461,0.8333333333333334,1.0,,,1.0,1.0,1.0,0.7777777777777778,1.0,1.0,,0.9148936170212766,1.0,0.8,0.8888888888888888,0.9629629629629629,1.0,1.0,1.0,1.0,0.0,1.0,,1.0,1.0,0.8064516129032258,1.0,1.0,1.0,1.0,0.9696969696969697,,0.9508196721311475,1.0,1.0,0.8823529411764706,0.5087719298245614,,,0.8888888888888888,1.0,1.0,0.9193548387096774,1.0,0.8615384615384616,1.0,0.8367346938775511,0.864406779661017,1.0,0.8695652173913043,0.5,0.8260869565217391,0.7777777777777778,0.9183673469387755,0.8,,1.0,0.6,1.0,1.0,1.0,1.0,1.0,0.9333333333333333,0.8409090909090909,,,1.0,1.0,1.0,0.0,1.0,0.875,,,1.0,0.5,,0.5,0.6428571428571429,0.8666666666666667,1.0,0.875,0.75,1.0,1.0,0.5,0.7021276595744681,,1.0,0.8961038961038961,1.0,1.0,0.875,1.0,1.0,1.0,1.0,1.0,0.6666666666666666,1.0,1.0,1.0,,0.8,0.9240506329113924,0.5,1.0,0.6666666666666666,0.75,1.0,0.7142857142857143,0.8135593220338984,1.0,1.0,1.0,0.3333333333333333,0.6666666666666666,1.0,1.0,1.0,1.0,1.0,1.0,0.7021276595744681,1.0,0.75,1.0,1.0,0.9444444444444444,1.0,0.8936170212765957,0.6666666666666666,,1.0,0.0,0.6792452830188679,1.0,,0.8333333333333334,0.9,0.8679245283018868,1.0,0.6896551724137931,0.6666666666666666,0.8888888888888888,1.0,,0.8928571428571429,0.8888888888888888,0.8333333333333334,,1.0,0.8,,1.0,1.0,1.0,1.0,0.8571428571428571,0.75,1.0,1.0,1.0,,,1.0,,1.0,1.0,,1.0,0.8888888888888888,1.0,1.0,,0.7021276595744681,0.8529411764705882,0.84375,1.0,0.9166666666666666,,1.0,1.0,0.6842105263157895,,1.0,,0.8461538461538461,0.9473684210526315,0.5,0.75,1.0,,1.0,1.0,1.0,0.8333333333333334,0.7222222222222222,0.8461538461538461,1.0,0.5,1.0,1.0,0.8571428571428571,,,1.0,1.0,1.0,1.0,1.0,0.8648648648648649,1.0,0.9333333333333333,1.0,0.42857142857142855,0.6136363636363636,0.9473684210526315,0.5,0.9508196721311475,0.6111111111111112,1.0,1.0,1.0,,1.0,1.0,0.8333333333333334,,1.0,0.8571428571428571,1.0,1.0,1.0,0.8775510204081632,0.6785714285714286,,1.0,,1.0,1.0,0.9454545454545454,1.0,1.0,,0.6666666666666666,0.8333333333333334,0.8,1.0,0.8333333333333334,0.9090909090909091,0.75,,0.8333333333333334,1.0,0.3333333333333333,0.5,1.0,,1.0,1.0,0.75,1.0,1.0,0.8857142857142857,0.7857142857142857,,0.2857142857142857,0.7142857142857143,0.8604651162790697,1.0,,1.0,0.9069767441860465,,0.7,0.8888888888888888,,0.8472222222222222,,1.0,0.9846153846153847,1.0,1.0,0.8867924528301887,1.0,0.9333333333333333,0.90625,1.0,1.0,1.0,0.6666666666666666,,1.0,0.8823529411764706,1.0,0.851063829787234,0.5,1.0,1.0,1.0,0.7575757575757576,,,0.5714285714285714,0.7567567567567568,0.5,0.7666666666666667,1.0,0.5,0.8297872340425532,0.6666666666666666,,1.0,1.0,0.6428571428571429,0.75,0.9285714285714286,1.0,0.5714285714285714,1.0,1.0,1.0,0.7777777777777778,0.8888888888888888,1.0,0.0,1.0,0.7857142857142857,1.0,1.0,0.25,,1.0,0.9285714285714286,0.9411764705882353,1.0,,0.7857142857142857,,0.8888888888888888,1.0,0.5,1.0,1.0,1.0,,1.0,1.0,0.6666666666666666,0.9111111111111111,1.0,1.0,1.0,0.25,0.8591549295774648,1.0,1.0,0.9444444444444444,1.0,1.0,,,,1.0,0.7333333333333333,0.8235294117647058,1.0,1.0,0.8,0.8,0.8409090909090909,0.0,1.0,,0.9090909090909091,0.5555555555555556,0.4,0.7777777777777778,,0.7575757575757576,0.9206349206349206,,1.0,1.0,1.0,1.0,1.0,1.0,0.3333333333333333,1.0,1.0,0.9166666666666666,0.0,0.782608695652174,1.0,1.0,0.46938775510204084,1.0,1.0,1.0,0.8888888888888888,0.9166666666666666,0.0,0.7894736842105263,1.0,,1.0,,0.8181818181818182,1.0,1.0,0.875,1.0,0.6470588235294118,0.5,0.5,1.0,0.9090909090909091,,1.0,1.0,,0.9545454545454546,,0.0,1.0,0.75,1.0,,0.5,0.8,1.0,0.864406779661017,0.96,,1.0,1.0,0.9411764705882353,0.75,,1.0,1.0,0.6,0.927536231884058,0.5,1.0,,0.9166666666666666,,1.0,0.6363636363636364,,1.0,1.0,1.0,0.8,1.0,,0.8846153846153846,,0.9,0.8333333333333334,1.0,1.0,0.8367346938775511,0.8888888888888888,1.0,1.0,0.6491228070175439,1.0,0.8157894736842105,1.0,1.0,0.9333333333333333,0.6666666666666666,1.0,,0.9629629629629629,1.0,1.0
2017-02-01,0.6666666666666666,0.7575757575757576,0.9090909090909091,,1.0,0.3333333333333333,1.0,1.0,1.0,,,,1.0,0.9117647058823529,0.9090909090909091,0.8648648648648649,1.0,,0.95,1.0,0.8,1.0,1.0,1.0,1.0,1.0,0.25,0.5833333333333334,1.0,1.0,1.0,0.8611111111111112,,1.0,0.9411764705882353,0.8888888888888888,0.9047619047619048,1.0,1.0,1.0,1.0,,1.0,1.0,1.0,0.8695652173913043,0.8235294117647058,1.0,1.0,1.0,0.8095238095238095,1.0,0.9298245614035088,0.782608695652174,1.0,0.92,0.7073170731707317,,1.0,0.85,0.8181818181818182,1.0,0.9552238805970149,1.0,0.8524590163934426,1.0,0.5769230769230769,0.75,1.0,0.8333333333333334,0.8333333333333334,0.8076923076923077,1.0,0.82,0.7142857142857143,,1.0,0.7878787878787878,1.0,1.0,1.0,1.0,1.0,1.0,0.9230769230769231,0.8333333333333334,,1.0,0.9285714285714286,1.0,1.0,1.0,0.75,1.0,0.8571428571428571,1.0,1.0,,0.5,0.9142857142857143,0.92,0.9166666666666666,1.0,1.0,0.5,1.0,,0.631578947368421,,1.0,0.8484848484848485,1.0,,1.0,,1.0,0.1,1.0,1.0,,1.0,1.0,0.9,0.0,0.7777777777777778,0.927536231884058,0.8695652173913043,0.8461538461538461,0.5714285714285714,,1.0,1.0,0.9841269841269841,1.0,1.0,0.25,,0.0,1.0,1.0,0.7586206896551724,1.0,1.0,1.0,0.8292682926829268,1.0,0.9411764705882353,,0.9,0.6363636363636364,1.0,0.8484848484848485,1.0,1.0,1.0,0.6666666666666666,0.7142857142857143,1.0,0.3333333333333333,1.0,0.9622641509433962,0.9180327868852459,1.0,0.8333333333333334,0.8333333333333334,0.8333333333333334,0.0,1.0,1.0,1.0,1.0,0.5,1.0,0.75,1.0,1.0,0.5714285714285714,1.0,0.0,1.0,0.6666666666666666,0.9,1.0,1.0,1.0,0.8333333333333334,1.0,1.0,,0.875,1.0,,0.8636363636363636,1.0,,0.9166666666666666,0.6666666666666666,0.6521739130434783,0.8983050847457628,1.0,0.8909090909090909,1.0,1.0,1.0,0.8524590163934426,,0.5,,0.6666666666666666,0.9642857142857143,0.6666666666666666,1.0,0.875,,1.0,1.0,1.0,1.0,0.8181818181818182,0.75,1.0,0.9285714285714286,1.0,1.0,0.8,,,1.0,1.0,0.0,1.0,0.6363636363636364,0.9466666666666667,1.0,1.0,1.0,0.7142857142857143,0.6818181818181818,1.0,0.8571428571428571,0.9545454545454546,0.896551724137931,1.0,0.5,1.0,1.0,,0.8571428571428571,0.75,,1.0,1.0,1.0,1.0,1.0,0.7551020408163265,0.9714285714285714,0.9285714285714286,0.9230769230769231,1.0,1.0,1.0,0.8095238095238095,1.0,1.0,,1.0,0.8823529411764706,0.6363636363636364,,0.75,0.8444444444444444,0.7,,1.0,1.0,1.0,,1.0,,1.0,,0.9090909090909091,1.0,1.0,0.6764705882352942,1.0,1.0,1.0,0.75,0.9259259259259259,0.8571428571428571,1.0,0.9090909090909091,0.8064516129032258,1.0,1.0,0.8666666666666667,1.0,0.8793103448275862,0.42857142857142855,1.0,0.9545454545454546,0.6666666666666666,0.8571428571428571,0.8113207547169812,,1.0,0.9791666666666666,1.0,1.0,0.0,0.9285714285714286,0.0,,0.8378378378378378,1.0,0.8297872340425532,0.8571428571428571,0.8,1.0,,0.9,,,0.8571428571428571,0.8888888888888888,0.0,0.8974358974358975,0.6,1.0,0.9107142857142857,,0.8571428571428571,1.0,1.0,0.6875,1.0,0.9411764705882353,,0.7391304347826086,0.6666666666666666,1.0,0.8181818181818182,0.9545454545454546,1.0,0.5454545454545454,0.5,0.6666666666666666,0.75,0.6363636363636364,0.8285714285714286,0.13333333333333333,1.0,1.0,0.9,0.8888888888888888,1.0,,1.0,1.0,0.696969696969697,0.8076923076923077,0.6,1.0,1.0,,1.0,0.9375,1.0,0.5,0.9666666666666667,1.0,0.25,1.0,1.0,0.9411764705882353,,0.8333333333333334,0.8666666666666667,,1.0,1.0,1.0,0.8,1.0,0.625,0.7857142857142857,1.0,1.0,0.75,0.5833333333333334,0.7631578947368421,1.0,0.9375,,0.8,0.7272727272727273,0.5,0.42857142857142855,,0.75,0.9523809523809523,1.0,0.8333333333333334,1.0,,,1.0,,1.0,,1.0,0.5,1.0,0.6190476190476191,1.0,1.0,0.39285714285714285,1.0,1.0,,0.9545454545454546,1.0,0.9230769230769231,0.9298245614035088,1.0,,0.4,,0.6666666666666666,1.0,,0.8928571428571429,1.0,0.6491228070175439,1.0,1.0,,0.9285714285714286,1.0,1.0,0.6666666666666666,1.0,0.9230769230769231,0.6774193548387096,,1.0,1.0,1.0,,0.5384615384615384,0.9230769230769231,0.9523809523809523,0.9,0.8823529411764706,0.875,1.0,,1.0,1.0,1.0,0.6666666666666666,0.6,0.5555555555555556,0.9333333333333333,1.0,1.0,1.0,0.9047619047619048,1.0,1.0,0.7272727272727273,,1.0,1.0,0.6666666666666666,1.0,1.0,,0.9423076923076923,,1.0,0.9411764705882353,1.0,1.0,0.6122448979591837,0.8181818181818182,0.9523809523809523,1.0,0.9512195121951219,0.8125,1.0,0.9444444444444444,1.0,1.0,1.0,1.0,1.0,0.68,1.0,1.0
2017-02-02,0.9411764705882353,0.5789473684210527,0.5,,1.0,0.3333333333333333,1.0,,1.0,,0.0,,1.0,1.0,0.875,0.8888888888888888,0.3333333333333333,0.8888888888888888,0.6818181818181818,1.0,0.3333333333333333,1.0,,1.0,1.0,1.0,1.0,0.75,1.0,0.8333333333333334,,0.8181818181818182,,0.7,1.0,1.0,1.0,1.0,,1.0,1.0,1.0,,,1.0,0.95,0.8709677419354839,,1.0,1.0,1.0,1.0,0.9041095890410958,0.6666666666666666,1.0,0.9285714285714286,0.7037037037037037,,1.0,0.8888888888888888,0.8333333333333334,1.0,0.8,1.0,0.7254901960784313,1.0,0.88,0.8888888888888888,1.0,0.8301886792452831,1.0,0.7307692307692307,1.0,0.9565217391304348,0.9,,1.0,1.0,1.0,0.6,0.875,0.9,1.0,1.0,0.8666666666666667,1.0,,0.0,0.7692307692307693,1.0,,1.0,1.0,0.6153846153846154,0.6842105263157895,0.8,1.0,1.0,0.8,0.9090909090909091,0.8846153846153846,1.0,0.9583333333333334,1.0,1.0,,1.0,0.6181818181818182,,,0.8484848484848485,1.0,,0.75,0.6842105263157895,0.9333333333333333,1.0,1.0,1.0,1.0,0.75,1.0,1.0,1.0,0.9523809523809523,0.9767441860465116,1.0,0.8,0.8,1.0,1.0,1.0,0.9629629629629629,1.0,1.0,0.3333333333333333,1.0,0.25,1.0,1.0,0.75,1.0,1.0,1.0,0.6833333333333333,1.0,1.0,,1.0,0.6666666666666666,1.0,0.8,,1.0,1.0,0.625,0.6944444444444444,0.85,0.75,0.7692307692307693,0.9193548387096774,0.8,1.0,0.8333333333333334,1.0,1.0,1.0,0.9,1.0,0.6,1.0,0.2857142857142857,1.0,0.8305084745762712,,0.5,0.9411764705882353,0.9310344827586207,0.0,1.0,1.0,0.6,1.0,1.0,1.0,,1.0,1.0,,0.6875,1.0,1.0,0.8571428571428571,0.9090909090909091,0.6,0.3333333333333333,0.796875,0.7727272727272727,0.8076923076923077,0.9130434782608695,0.890625,0.0,1.0,0.5714285714285714,0.7321428571428571,,0.2,,0.2,1.0,,1.0,0.8571428571428571,,0.8,1.0,0.6666666666666666,1.0,0.7647058823529411,1.0,0.5,0.75,1.0,0.6666666666666666,0.6666666666666666,,,1.0,1.0,1.0,1.0,0.875,0.9315068493150684,1.0,0.5,,0.9069767441860465,0.7105263157894737,1.0,0.75,0.9375,0.8333333333333334,1.0,,0.875,,1.0,0.75,1.0,,1.0,0.75,0.5,0.8518518518518519,,0.8333333333333334,0.8571428571428571,0.9230769230769231,0.8333333333333334,1.0,0.0,0.75,0.9615384615384616,1.0,0.0,,1.0,0.7727272727272727,0.6666666666666666,1.0,1.0,0.9375,0.7,,1.0,0.6666666666666666,1.0,1.0,1.0,,1.0,1.0,1.0,0.3333333333333333,1.0,0.8333333333333334,0.9090909090909091,0.5,1.0,0.75,0.9230769230769231,1.0,1.0,1.0,0.8333333333333334,0.0,0.8148148148148148,0.9682539682539683,0.6,0.75,,1.0,0.9344262295081968,1.0,1.0,0.9230769230769231,1.0,1.0,0.8928571428571429,0.9090909090909091,1.0,,1.0,1.0,1.0,0.8269230769230769,1.0,0.8333333333333334,0.8461538461538461,1.0,1.0,0.3333333333333333,1.0,,1.0,0.6,0.6296296296296297,,0.9130434782608695,0.9166666666666666,0.0,1.0,,1.0,1.0,1.0,0.7575757575757576,1.0,0.85,0.0,0.7407407407407407,1.0,0.7857142857142857,1.0,0.5,1.0,0.5909090909090909,1.0,0.9285714285714286,1.0,1.0,0.9583333333333334,0.18181818181818182,,1.0,1.0,0.7,1.0,,1.0,1.0,0.7659574468085106,0.8,1.0,1.0,1.0,1.0,,0.9,0.875,1.0,0.8888888888888888,,1.0,0.5,1.0,0.8688524590163934,0.7142857142857143,1.0,0.8333333333333334,,,,1.0,1.0,1.0,0.8125,0.8545454545454545,1.0,1.0,1.0,0.8928571428571429,0.8571428571428571,,0.5,1.0,0.7560975609756098,0.75,1.0,0.75,1.0,0.9259259259259259,0.9864864864864865,1.0,1.0,,1.0,1.0,,0.6428571428571429,1.0,1.0,0.8235294117647058,0.8666666666666667,,0.9555555555555556,1.0,1.0,0.8285714285714286,0.8181818181818182,1.0,0.0,1.0,1.0,1.0,0.9245283018867925,1.0,1.0,1.0,,1.0,0.9473684210526315,1.0,0.8863636363636364,0.9473684210526315,0.6296296296296297,0.8,0.8,,1.0,1.0,0.6666666666666666,0.5,,1.0,0.8571428571428571,,1.0,1.0,0.8,,1.0,0.9047619047619048,0.8,0.9545454545454546,0.8055555555555556,0.6875,1.0,,1.0,1.0,1.0,1.0,0.2857142857142857,0.25,0.9090909090909091,,0.8333333333333334,0.8,0.8723404255319149,1.0,1.0,1.0,,0.5,1.0,1.0,1.0,1.0,,1.0,,1.0,1.0,1.0,1.0,0.8333333333333334,1.0,0.8571428571428571,0.9444444444444444,0.8,1.0,0.9583333333333334,0.8461538461538461,0.8,1.0,1.0,0.8333333333333334,1.0,0.9534883720930233,1.0,1.0
2017-02-03,0.8461538461538461,0.54,0.6923076923076923,,1.0,0.47058823529411764,0.75,0.5,,,0.6,,1.0,0.8333333333333334,1.0,0.9444444444444444,1.0,1.0,0.7142857142857143,1.0,0.8888888888888888,1.0,1.0,1.0,1.0,1.0,1.0,0.7647058823529411,0.8,0.875,0.3333333333333333,0.9024390243902439,1.0,0.9230769230769231,1.0,1.0,1.0,1.0,1.0,0.8333333333333334,1.0,0.8333333333333334,1.0,1.0,1.0,0.8125,0.8372093023255814,1.0,1.0,1.0,1.0,1.0,1.0,1.0,1.0,1.0,0.5272727272727272,1.0,,0.5416666666666666,0.875,,0.8823529411764706,1.0,0.7931034482758621,1.0,0.8846153846153846,0.8095238095238095,1.0,0.9583333333333334,0.8333333333333334,0.7837837837837838,1.0,0.8064516129032258,1.0,0.0,,0.8064516129032258,1.0,1.0,0.6666666666666666,1.0,1.0,1.0,0.875,1.0,,1.0,0.8571428571428571,1.0,1.0,0.8333333333333334,1.0,0.8888888888888888,0.7272727272727273,0.5,1.0,1.0,0.0,1.0,0.7857142857142857,1.0,0.9333333333333333,1.0,,1.0,0.0,0.6037735849056604,0.0,0.75,1.0,1.0,,0.8571428571428571,0.7692307692307693,1.0,,,1.0,0.8,1.0,0.875,,1.0,0.9230769230769231,0.9836065573770492,1.0,0.8421052631578947,1.0,0.875,,,0.9,0.8333333333333334,1.0,,0.0,0.1111111111111111,1.0,1.0,0.5714285714285714,1.0,1.0,1.0,0.7857142857142857,0.8571428571428571,1.0,1.0,1.0,1.0,1.0,0.9,1.0,1.0,0.9285714285714286,1.0,0.7,1.0,1.0,1.0,0.9552238805970149,0.8936170212765957,1.0,0.8163265306122449,0.6666666666666666,1.0,1.0,1.0,1.0,0.7777777777777778,1.0,0.0,1.0,0.85,,1.0,1.0,0.9,0.6666666666666666,1.0,1.0,1.0,1.0,,,1.0,1.0,1.0,1.0,0.8333333333333334,0.3333333333333333,1.0,0.90625,1.0,1.0,1.0,0.8767123287671232,0.9473684210526315,0.9642857142857143,0.7272727272727273,0.9365079365079365,1.0,0.25,1.0,0.8297872340425532,0.5,0.0,,0.0,0.9333333333333333,0.8571428571428571,1.0,1.0,1.0,1.0,1.0,0.5,0.5,1.0,1.0,0.75,0.8541666666666666,1.0,0.6666666666666666,1.0,,1.0,,1.0,1.0,1.0,0.8780487804878049,0.9642857142857143,1.0,1.0,1.0,0.8817204301075269,0.7931034482758621,1.0,1.0,0.875,0.8888888888888888,1.0,1.0,0.8571428571428571,,0.6666666666666666,0.7222222222222222,1.0,,1.0,1.0,1.0,0.875,1.0,0.9464285714285714,0.875,1.0,0.9545454545454546,1.0,0.75,0.9,0.9122807017543859,1.0,0.5,1.0,1.0,0.8571428571428571,1.0,1.0,1.0,1.0,1.0,,0.8888888888888888,0.9166666666666666,,,1.0,,0.9166666666666666,1.0,1.0,1.0,,0.8620689655172413,1.0,1.0,0.8461538461538461,0.7692307692307693,0.9411764705882353,1.0,0.6666666666666666,0.6666666666666666,0.9130434782608695,,0.9,0.8852459016393442,0.75,0.7719298245614035,0.3333333333333333,,0.9722222222222222,,1.0,0.8974358974358975,0.8275862068965517,0.8888888888888888,0.9649122807017544,1.0,,,0.0,,1.0,0.8444444444444444,,0.86,1.0,,1.0,,0.9795918367346939,0.5,1.0,0.8260869565217391,0.8611111111111112,1.0,0.9130434782608695,1.0,1.0,0.8461538461538461,1.0,,1.0,0.9130434782608695,0.9333333333333333,1.0,0.9230769230769231,1.0,0.76,1.0,0.9,0.96,1.0,0.0,0.6666666666666666,0.6666666666666666,0.9545454545454546,,1.0,0.9411764705882353,0.1111111111111111,1.0,1.0,1.0,0.9411764705882353,0.8,,0.6666666666666666,,0.75,1.0,1.0,1.0,1.0,,1.0,1.0,1.0,,0.96,1.0,1.0,0.8333333333333334,1.0,0.8048780487804879,1.0,1.0,0.7142857142857143,1.0,0.5,1.0,0.7692307692307693,1.0,1.0,1.0,0.9423076923076923,1.0,1.0,1.0,0.6470588235294118,0.9649122807017544,,0.5,1.0,0.85,1.0,0.9,0.8,1.0,0.9245283018867925,0.9642857142857143,,1.0,0.8,1.0,1.0,1.0,0.6176470588235294,0.75,,1.0,0.8461538461538461,1.0,1.0,1.0,0.6666666666666666,0.7619047619047619,1.0,,1.0,1.0,,0.0,0.922077922077922,1.0,,1.0,,0.3333333333333333,1.0,1.0,0.9310344827586207,1.0,0.5869565217391305,1.0,1.0,,1.0,,0.8333333333333334,1.0,,0.8666666666666667,0.8333333333333334,1.0,1.0,1.0,1.0,,0.782608695652174,0.95,0.7777777777777778,1.0,1.0,0.75,1.0,1.0,1.0,1.0,,1.0,1.0,1.0,0.9259259259259259,1.0,0.6,0.94,0.9629629629629629,0.0,1.0,0.875,1.0,1.0,1.0,1.0,1.0,1.0,,0.8125,,1.0,1.0,1.0,1.0,0.8382352941176471,1.0,0.75,1.0,0.8235294117647058,1.0,0.9444444444444444,1.0,1.0,1.0,1.0,1.0,,0.9047619047619048,0.0,0.5
2017-02-04,1.0,0.5925925925925926,1.0,,1.0,0.0,,1.0,,,0.75,1.0,1.0,0.7,0.6666666666666666,1.0,1.0,1.0,0.75,1.0,1.0,1.0,,0.0,,1.0,1.0,1.0,0.8,1.0,0.8333333333333334,1.0,,0.9166666666666666,,0.4,1.0,,0.0,,0.5,1.0,,1.0,,,0.7,0.0,1.0,,0.5,,0.8518518518518519,0.5,,0.8,0.525,,,0.75,0.6666666666666666,1.0,0.9322033898305084,1.0,0.7407407407407407,1.0,1.0,0.8823529411764706,1.0,1.0,0.0,0.8372093023255814,0.8333333333333334,1.0,0.8181818181818182,,,1.0,,1.0,,,,0.6666666666666666,0.8,,,,1.0,0.0,1.0,1.0,1.0,1.0,0.2,1.0,,,0.5,0.8333333333333334,0.8181818181818182,1.0,0.875,1.0,1.0,,1.0,0.5409836065573771,1.0,,0.9047619047619048,1.0,,1.0,1.0,,1.0,1.0,1.0,1.0,,1.0,0.6666666666666666,,1.0,0.9558823529411765,1.0,0.8333333333333334,0.6666666666666666,0.75,,1.0,0.8125,1.0,1.0,,0.0,0.0,,1.0,0.3333333333333333,0.6666666666666666,0.5,1.0,0.7924528301886793,1.0,0.3333333333333333,0.8333333333333334,0.0,1.0,1.0,0.7708333333333334,,1.0,0.6666666666666666,0.8571428571428571,0.4,,0.0,0.8,0.9736842105263158,0.8367346938775511,1.0,0.8928571428571429,0.3333333333333333,0.0,,1.0,1.0,1.0,1.0,,0.5,0.7368421052631579,1.0,,1.0,0.6666666666666666,1.0,1.0,1.0,1.0,1.0,1.0,1.0,,1.0,1.0,1.0,,1.0,,0.9090909090909091,1.0,,0.0,0.8478260869565217,1.0,0.8,0.6666666666666666,0.8695652173913043,1.0,,0.6,0.813953488372093,,1.0,,0.0,1.0,1.0,,0.8571428571428571,1.0,1.0,,1.0,,0.8,0.625,,0.6666666666666666,1.0,1.0,0.5,,,1.0,1.0,1.0,0.6666666666666666,0.8333333333333334,0.9393939393939394,1.0,,1.0,0.9047619047619048,0.8285714285714286,1.0,,0.9333333333333333,1.0,1.0,,1.0,,1.0,,,,1.0,0.6666666666666666,,0.6666666666666666,0.6666666666666666,0.9523809523809523,0.9285714285714286,0.8333333333333334,1.0,1.0,,1.0,0.9230769230769231,1.0,,,,1.0,0.6666666666666666,,,1.0,,,,1.0,1.0,1.0,1.0,,0.42857142857142855,,,,,1.0,1.0,,1.0,0.8,0.7857142857142857,,1.0,,0.9583333333333334,,0.75,0.9259259259259259,1.0,0.9411764705882353,,1.0,0.9880952380952381,0.0,1.0,0.9285714285714286,0.5714285714285714,1.0,0.9411764705882353,1.0,,,0.0,0.0,1.0,0.9056603773584906,,0.7878787878787878,1.0,,,,0.9444444444444444,,1.0,0.6363636363636364,0.8709677419354839,,0.5,1.0,0.8333333333333334,0.84375,1.0,1.0,,1.0,1.0,,1.0,,0.4375,1.0,0.8571428571428571,1.0,0.8,1.0,0.0,1.0,0.8888888888888888,,1.0,1.0,0.3333333333333333,,,1.0,0.75,,,1.0,,0.7454545454545455,1.0,0.75,,0.0,,0.3333333333333333,1.0,1.0,1.0,0.7857142857142857,1.0,1.0,0.8823529411764706,,0.8529411764705882,,1.0,1.0,1.0,1.0,,,1.0,0.4,,0.717391304347826,,1.0,,0.8571428571428571,1.0,,1.0,1.0,0.8484848484848485,1.0,1.0,1.0,1.0,0.8372093023255814,0.96875,,,1.0,1.0,,,0.8666666666666667,1.0,,1.0,0.5,,0.6842105263157895,1.0,1.0,1.0,1.0,1.0,,,,1.0,0.8867924528301887,1.0,0.0,1.0,,1.0,1.0,0.3333333333333333,0.8888888888888888,1.0,0.5813953488372093,1.0,,1.0,0.8,1.0,1.0,1.0,,1.0,0.4,,1.0,1.0,,,1.0,1.0,0.5,1.0,0.9333333333333333,,0.6666666666666666,,0.6666666666666666,1.0,0.8571428571428571,1.0,1.0,0.0,0.88,1.0,1.0,1.0,0.8461538461538461,,1.0,1.0,,,1.0,0.9615384615384616,1.0,,,0.7692307692307693,,,1.0,1.0,1.0,0.8088235294117647,1.0,1.0,0.8333333333333334,1.0,1.0,1.0,0.8333333333333334,0.75,0.5,1.0,,,1.0,0.8888888888888888,
