date,UNH,CMG,KSS,TPR,DISCA,WM,RJF,PLD,SEE,BHF,SRCL,DOV,DHI,ILMN,WDC,CELG,PKG,WRK,OKE,MMM,FOXA,PCG,SYY,HII,XRAY,DTE,RCL,AIG,TSN,CSX,LH,MRK,AIZ,HPQ,BAX,TMO,WEC,AMT,CMI,ORLY,XEL,MCK,ANET,L,AJG,VLO,FTNT,PXD,UDR,JBHT,DHR,SIVB,T,NOV,FLR,REGN,UPS,NFX,OMC,FCX,KO,NTRS,AMZN,EOG,KIM,VTR,AAL,PFE,HRS,INTC,TDG,EBAY,USB,LLY,LOW,DISCK,PGR,TSCO,LEN,ADM,HCP,PKI,AMG,INCY,DAL,COO,WLTW,COL,NEM,ROST,WMB,RTN,ADS,EQT,SNA,ALXN,MLM,ALLE,KMB,ARNC,CERN,MAR,XRX,SHW,FRT,CPRT,DRI,ABC,VRSN,CFG,XOM,INFO,AEE,WHR,ETFC,MMC,CCL,RMD,HPE,CPB,KHC,AKAM,BXP,LLL,CHTR,AAPL,HRL,SYMC,K,MSI,MAA,EQIX,BA,NOC,PNC,SJM,LKQ,SLG,CF,FAST,ADP,GT,CXO,ADI,AAP,VRTX,PPL,DVN,TSS,KR,JNPR,ES,GWW,UNM,DISH,ESRX,CL,BLL,XYL,LB,MS,FB,APD,CBS,SPG,DLTR,SRE,DVA,ABT,KMI,GLW,BBT,UTX,VZ,ABMD,HRB,CTSH,IDXX,PBCT,EXC,PPG,PHM,KEY,BRK-B,SYF,ROL,STI,GPC,FITB,HOLX,ESS,FLT,CVX,ACN,FIS,STZ,M,GILD,AGN,CME,MAC,AWK,MTB,YUM,TWTR,REG,COG,BHGE,PNR,BLK,GRMN,HLT,AXP,NCLH,MRO,COF,HON,HAL,CVS,SWKS,ETN,RL,MTD,CTL,ALGN,JEF,NWSA,CHD,AON,NLSN,LEG,PSX,WFC,AMAT,CBOE,VMC,JWN,SBUX,HUM,AIV,WMT,FDX,ICE,EFX,ISRG,WELL,DRE,IP,RHT,IQV,TXT,MAT,KSU,PM,CNP,JPM,NKE,CI,AMP,RSG,FE,SCHW,TGT,PRGO,ZTS,GPN,PAYX,BIIB,PYPL,PVH,MCO,MPC,QRVO,XEC,VFC,LUV,TEL,FISV,MKC,DXC,HAS,CINF,NUE,FLIR,HSIC,QCOM,STX,WAT,WY,PEP,EA,HCA,NWL,CB,JNJ,ROP,IT,F,HBAN,AMD,KMX,PEG,MSFT,NTAP,SO,GM,CLX,GD,AMGN,PH,LIN,NKTR,AVB,VRSK,MCHP,CAT,LRCX,EW,FL,IPGP,ROK,CCI,LMT,LNT,BWA,PG,GOOGL,CAG,CRM,GPS,AME,NFLX,TRV,TMK,COTY,WU,HOG,ULTA,MO,WCG,O,MNST,APA,ABBV,MA,FBHS,D,NSC,COST,ZBH,MGM,ANTM,SWK,ECL,DLR,APC,HD,CMS,EIX,ED,RE,V,CTXS,TIF,APH,EMR,VNO,SCG,BK,MSCI,HES,CMCSA,VIAB,KLAC,NRG,DGX,NVDA,EMN,SYK,MYL,AES,IPG,SBAC,LYB,HFC,TRIP,WBA,IBM,BR,ALB,MOS,NWS,BMY,FTI,IR,MAS,DIS,AVGO,TROW,AEP,HIG,GS,C,UHS,UNP,PFG,HST,SNPS,MHK,HBI,BEN,FMC,BSX,WYNN,IFF,ADBE,ARE,KEYS,UAA,NBL,ANSS,PWR,DUK,ZION,AZO,BAC,ADSK,CTAS,CNC,PSA,PCAR,BDX,FFIV,MU,MDT,FOX,TJX,KORS,NI,COP,SPGI,ALK,RHI,PNW,ORCL,TTWO,BF-B,DFS,SLB,STT,APTV,TXN,UAL,MET,AET,A,EL,HP,FTV,EXPE,RF,FLS,ITW,GIS,NDAQ,GOOG,IVZ,XLNX,HSY,GE,EXPD,ETR,URI,IRM,VAR,CHRW,MDLZ,CAH,JEC,CBRE,ATVI,DWDP,PRU,AVY,TAP,DG,AFL,DE,JCI,CDNS,UA,EQR,CSCO,ALL,LNC,BBY,INTU,AOS,EXR,MCD,CMA,NEE
2017-01-01,14,58,,,4.0,,7.0,,5.0,,4.0,2.0,,2.0,3.0,19,,,5.0,33.0,3,,,2.0,,12.0,5.0,4,2.0,,,23,,3,1.0,2.0,,,3.0,2.0,1.0,1.0,3.0,1.0,,10.0,12.0,,,1.0,3.0,2.0,58,,2.0,6,60,6.0,1.0,35,17,,120,3.0,120,4,14,23,,35,,120,7,4,12,1.0,1.0,29.0,1.0,3.0,2.0,3.0,1.0,6,5,3.0,,1.0,19,2.0,3.0,4,5,,,5.0,10.0,,9,,18,2,6.0,2.0,,2.0,6.0,120,1.0,3.0,45,,,3.0,5.0,,2,,1,2.0,5,2.0,4.0,,8.0,120,8.0,,10,6.0,2.0,3.0,53,,6.0,,3.0,,23.0,1.0,33.0,1.0,3.0,6.0,120,6,3.0,2.0,1.0,4,1.0,17,2.0,3.0,23.0,2.0,5,1.0,5.0,4.0,42,120,,120,3.0,,2.0,2.0,27,3,14.0,,15.0,45,,,2,1.0,1.0,2.0,,5.0,4.0,1,2.0,,5.0,,2.0,1.0,3.0,1.0,22,,,7.0,21,26,16,6.0,120,3.0,2.0,5,120,2.0,1.0,,5.0,23,2.0,,11,6.0,3,5.0,5,12,18,3,4.0,,,7.0,,,1.0,,2.0,3.0,,5,19,5,4.0,2.0,11.0,23,13,,20,12,8,1.0,,2.0,,3,3.0,,4.0,3.0,,11,3.0,42,33,2.0,2,,4.0,2.0,6,8.0,3.0,3.0,3.0,9,13,,,3.0,1.0,1.0,4.0,7.0,3.0,,12.0,,21,,1.0,1.0,,36,,,1.0,11,8,3.0,1.0,5.0,29,2.0,14,42,5.0,120,18.0,,120,,3,35,,5,20,5.0,,4.0,,,1.0,73,,70,2.0,,6.0,,24,4.0,4.0,16,33,5.0,13,14.0,9.0,82,,2.0,,3.0,2.0,4,13,1.0,48,7,6.0,16,10,2.0,10.0,3.0,22,1.0,7.0,,,2.0,3.0,3,34,1.0,2.0,4,1.0,120,,1.0,5.0,2,1.0,1.0,3.0,6.0,,19,3.0,1.0,,2.0,83,1.0,3.0,13,,3.0,,1.0,2.0,6,9,118,,3.0,16.0,39,36,8.0,1,,51,4,10.0,1,2.0,44,11,1.0,13,1.0,1.0,,1.0,1.0,3,,,22,,4,40,6,3.0,,,6.0,15,2.0,3.0,37,7.0,2.0,2.0,2.0,4.0,4,2.0,28,8,117,5.0,5.0,,17,5.0,7.0,1.0,,19,2.0,3.0,2.0,5,3.0,,4,3,6,6.0,34,,,2.0,3.0,,,1.0,8,5.0,120,1.0,7.0,,30,1.0,18.0,1.0,1.0,1.0,1.0,4,6.0,,,2,,1.0,6.0,7,3.0,105,3,,4.0,7,2.0,19,5,6.0,20,29.0,1.0,4.0,38,4.0,8.0
2017-01-02,18,41,17.0,,3.0,4.0,2.0,4.0,4.0,,8.0,2.0,2.0,7.0,8.0,24,1.0,1.0,8.0,37.0,15,2.0,2.0,5.0,,2.0,4.0,12,5.0,8.0,,24,2.0,6,1.0,,2.0,7.0,5.0,8.0,5.0,4.0,4.0,3.0,,25.0,1.0,3.0,5.0,2.0,5.0,6.0,53,6.0,3.0,7,115,4.0,,37,38,2.0,120,12.0,120,9,10,30,1.0,47,1.0,120,11,11,30,1.0,3.0,36.0,4.0,10.0,7.0,3.0,3.0,24,13,6.0,1.0,1.0,31,11.0,4.0,12,16,2.0,,8.0,5.0,2.0,3,6.0,34,18,10.0,10.0,4.0,3.0,8.0,120,7.0,7.0,53,1.0,1.0,5.0,5.0,3.0,3,,5,2.0,6,3.0,9.0,2.0,12.0,120,6.0,8.0,9,2.0,8.0,6.0,61,10.0,8.0,3.0,2.0,4.0,20.0,6.0,25.0,7.0,9.0,11.0,120,14,2.0,11.0,1.0,18,1.0,43,1.0,3.0,1.0,11.0,11,,1.0,4.0,27,120,1.0,120,6.0,13.0,1.0,4.0,23,9,16.0,12.0,23.0,45,4.0,2.0,14,1.0,3.0,3.0,3.0,,9.0,10,7.0,2.0,3.0,3.0,,1.0,6.0,2.0,31,27.0,4.0,7.0,21,57,21,7.0,120,9.0,4.0,12,120,3.0,10.0,,5.0,11,11.0,4.0,22,6.0,3,18.0,12,14,22,12,3.0,,2.0,5.0,2.0,,3.0,1.0,2.0,2.0,9.0,8,74,17,2.0,3.0,7.0,24,12,3.0,29,18,4,,6.0,,2.0,15,2.0,,12.0,5.0,4.0,15,2.0,37,32,5.0,3,3.0,3.0,3.0,23,9.0,2.0,1.0,5.0,31,22,,1.0,3.0,6.0,,7.0,17.0,1.0,5.0,12.0,,35,,10.0,2.0,10.0,52,6.0,4.0,6.0,18,21,3.0,2.0,3.0,34,3.0,11,49,2.0,111,20.0,1.0,119,7.0,18,23,4.0,10,24,4.0,3.0,8.0,7.0,,,63,6.0,115,5.0,,1.0,,34,1.0,6.0,24,74,4.0,35,6.0,6.0,107,6.0,3.0,3.0,1.0,2.0,3,18,1.0,44,8,8.0,25,15,1.0,13.0,5.0,29,1.0,11.0,3.0,4.0,8.0,8.0,2,37,2.0,2.0,6,2.0,120,5.0,3.0,3.0,7,1.0,,17.0,,5.0,37,3.0,,,3.0,120,3.0,5.0,24,,,1.0,,3.0,13,16,120,4.0,3.0,29.0,18,21,,3,7.0,55,9,7.0,3,3.0,85,46,1.0,15,7.0,4.0,,2.0,2.0,7,6.0,7.0,26,2.0,11,44,6,14.0,2.0,4.0,12.0,12,21.0,1.0,44,3.0,,5.0,8.0,1.0,4,11.0,42,18,120,9.0,5.0,4.0,18,3.0,4.0,5.0,1.0,27,11.0,3.0,8.0,7,1.0,,13,7,15,6.0,32,9.0,1.0,1.0,4.0,9.0,4.0,14.0,6,5.0,120,,12.0,7.0,38,1.0,1.0,4.0,1.0,1.0,2.0,11,5.0,5.0,,9,,14.0,5.0,12,3.0,86,18,5.0,4.0,11,4.0,46,13,,29,19.0,2.0,11.0,55,11.0,7.0
2017-01-03,55,50,7.0,,3.0,6.0,9.0,5.0,4.0,,8.0,14.0,1.0,24.0,15.0,63,5.0,3.0,11.0,51.0,46,2.0,7.0,12.0,4.0,8.0,5.0,27,13.0,14.0,10.0,80,11.0,120,6.0,8.0,,6.0,17.0,13.0,3.0,38.0,7.0,10.0,5.0,36.0,9.0,10.0,6.0,7.0,25.0,2.0,120,15.0,5.0,37,120,25.0,,95,58,17.0,120,17.0,120,24,26,53,19.0,120,1.0,120,19,29,34,2.0,2.0,27.0,6.0,14.0,16.0,3.0,2.0,22,29,2.0,6.0,2.0,44,6.0,11.0,19,23,17.0,6.0,14.0,4.0,5.0,14,8.0,36,23,120.0,12.0,8.0,1.0,3.0,120,6.0,11.0,97,8.0,3.0,33.0,8.0,9.0,37,2.0,13,4.0,16,3.0,22.0,,24.0,120,10.0,16.0,13,8.0,9.0,2.0,95,10.0,18.0,5.0,2.0,7.0,29.0,6.0,39.0,8.0,7.0,12.0,120,18,14.0,22.0,20.0,31,6.0,120,2.0,8.0,72.0,21.0,53,3.0,2.0,12.0,60,120,15.0,119,23.0,16.0,8.0,2.0,47,17,21.0,17.0,26.0,120,,5.0,8,8.0,1.0,8.0,,8.0,15.0,21,4.0,3.0,10.0,13.0,21.0,12.0,5.0,2.0,54,20.0,5.0,35.0,57,120,111,14.0,120,4.0,10.0,30,120,12.0,19.0,,9.0,48,17.0,11.0,40,2.0,22,17.0,17,40,28,12,15.0,8.0,4.0,66.0,6.0,2.0,2.0,21.0,12.0,,6.0,17,81,22,10.0,5.0,21.0,75,29,3.0,74,18,10,11.0,4.0,,6.0,14,3.0,,5.0,27.0,33.0,15,14.0,120,105,14.0,15,9.0,5.0,6.0,43,14.0,6.0,1.0,1.0,54,94,3.0,7.0,98.0,17.0,7.0,26.0,19.0,3.0,,5.0,,26,2.0,4.0,8.0,18.0,120,23.0,9.0,16.0,20,44,4.0,8.0,8.0,75,12.0,29,119,8.0,120,18.0,,120,12.0,11,120,6.0,19,62,2.0,3.0,2.0,3.0,,5.0,75,3.0,120,8.0,5.0,3.0,3.0,60,2.0,7.0,33,120,10.0,59,35.0,28.0,120,8.0,13.0,16.0,9.0,8.0,10,30,14.0,42,3,15.0,38,21,7.0,11.0,13.0,27,6.0,43.0,15.0,5.0,8.0,26.0,27,41,1.0,4.0,7,7.0,120,17.0,8.0,1.0,10,14.0,7.0,30.0,1.0,11.0,50,11.0,8.0,3.0,19.0,120,4.0,14.0,64,1.0,,1.0,13.0,16.0,22,32,120,3.0,10.0,34.0,35,43,9.0,18,1.0,120,14,13.0,11,22.0,120,119,10.0,22,18.0,13.0,4.0,2.0,13.0,8,3.0,9.0,56,1.0,9,34,10,28.0,2.0,7.0,11.0,31,11.0,17.0,120,5.0,6.0,9.0,9.0,34.0,24,8.0,60,97,120,11.0,58.0,,40,5.0,10.0,3.0,3.0,26,3.0,,1.0,19,25.0,,12,25,34,26.0,53,5.0,2.0,,8.0,21.0,7.0,6.0,19,11.0,120,2.0,39.0,22.0,92,4.0,7.0,16.0,13.0,3.0,4.0,21,43.0,12.0,,13,,14.0,5.0,9,12.0,55,30,6.0,1.0,29,10.0,62,26,4.0,50,31.0,2.0,20.0,120,16.0,4.0
2017-01-04,38,59,120.0,,3.0,9.0,9.0,6.0,13.0,,4.0,11.0,7.0,16.0,22.0,50,4.0,7.0,13.0,50.0,31,13.0,7.0,9.0,6.0,6.0,5.0,31,27.0,6.0,8.0,54,29.0,45,3.0,21.0,4.0,3.0,14.0,12.0,16.0,23.0,43.0,9.0,29.0,52.0,11.0,12.0,3.0,9.0,4.0,10.0,113,7.0,16.0,71,120,36.0,3.0,120,48,10.0,120,51.0,120,10,52,93,5.0,120,11.0,119,13,32,40,,24.0,35.0,10.0,9.0,19.0,3.0,19.0,31,62,4.0,3.0,10.0,26,10.0,17.0,32,18,11.0,3.0,62.0,9.0,6.0,14,5.0,34,33,107.0,13.0,4.0,15.0,5.0,120,5.0,13.0,117,2.0,1.0,12.0,15.0,5.0,35,11.0,11,8.0,7,11.0,10.0,4.0,12.0,120,16.0,15.0,9,7.0,4.0,12.0,115,10.0,16.0,2.0,3.0,5.0,34.0,7.0,7.0,4.0,17.0,11.0,120,12,16.0,11.0,9.0,23,1.0,98,14.0,5.0,23.0,20.0,55,8.0,2.0,12.0,75,120,20.0,103,36.0,12.0,12.0,5.0,74,28,21.0,29.0,38.0,115,4.0,1.0,25,31.0,4.0,11.0,19.0,13.0,24.0,18,13.0,9.0,14.0,7.0,11.0,37.0,,,108,15.0,13.0,86.0,120,120,100,21.0,120,10.0,22.0,22,120,6.0,39.0,,9.0,47,69.0,37.0,37,2.0,12,14.0,10,47,35,12,10.0,2.0,7.0,31.0,7.0,,4.0,5.0,,12.0,8.0,17,90,20,28.0,2.0,57.0,55,30,2.0,44,35,4,37.0,28.0,,,15,33.0,,13.0,34.0,20.0,45,10.0,120,120,20.0,15,4.0,4.0,22.0,39,10.0,8.0,2.0,11.0,55,52,7.0,12.0,45.0,13.0,6.0,11.0,40.0,21.0,4.0,8.0,,34,3.0,12.0,21.0,17.0,120,27.0,4.0,7.0,16,74,25.0,6.0,7.0,108,3.0,34,108,8.0,120,29.0,6.0,120,9.0,30,116,13.0,13,101,6.0,,4.0,4.0,6.0,17.0,104,7.0,120,6.0,3.0,8.0,10.0,29,3.0,18.0,18,120,13.0,56,41.0,14.0,120,8.0,7.0,12.0,12.0,8.0,5,70,27.0,41,31,32.0,44,53,7.0,13.0,18.0,25,8.0,29.0,35.0,,7.0,27.0,29,49,7.0,5.0,15,9.0,120,9.0,9.0,2.0,8,7.0,3.0,14.0,3.0,12.0,88,4.0,7.0,10.0,2.0,120,12.0,9.0,47,15.0,3.0,4.0,6.0,17.0,15,49,120,5.0,40.0,29.0,44,42,11.0,8,9.0,120,24,24.0,8,9.0,120,93,7.0,30,14.0,12.0,3.0,6.0,19.0,22,10.0,11.0,65,10.0,20,35,9,39.0,10.0,10.0,12.0,37,19.0,7.0,115,3.0,4.0,18.0,9.0,6.0,8,1.0,46,61,120,10.0,21.0,5.0,29,9.0,38.0,3.0,5.0,47,11.0,1.0,8.0,18,39.0,,11,45,16,31.0,91,3.0,2.0,2.0,15.0,11.0,,6.0,15,18.0,120,7.0,25.0,23.0,104,,21.0,25.0,7.0,14.0,5.0,17,23.0,9.0,,35,,18.0,4.0,8,12.0,63,51,6.0,11.0,49,6.0,48,40,3.0,38,11.0,1.0,13.0,100,26.0,19.0
2017-01-05,29,120,120.0,,24.0,9.0,24.0,3.0,13.0,,5.0,12.0,11.0,65.0,71.0,71,5.0,4.0,23.0,26.0,24,4.0,6.0,22.0,8.0,15.0,4.0,30,6.0,7.0,11.0,57,29.0,43,6.0,5.0,5.0,8.0,5.0,7.0,13.0,30.0,17.0,5.0,15.0,57.0,28.0,6.0,13.0,7.0,15.0,21.0,120,6.0,4.0,120,120,10.0,2.0,86,44,6.0,120,22.0,120,7,39,89,7.0,120,14.0,120,10,57,25,6.0,15.0,31.0,18.0,22.0,24.0,10.0,1.0,24,47,5.0,6.0,12.0,66,15.0,11.0,27,18,5.0,6.0,120.0,6.0,4.0,9,10.0,70,36,61.0,19.0,8.0,3.0,23.0,120,1.0,22.0,107,5.0,4.0,12.0,20.0,5.0,36,7.0,9,9.0,13,12.0,7.0,12.0,24.0,120,12.0,20.0,14,4.0,7.0,16.0,111,12.0,21.0,4.0,6.0,1.0,17.0,12.0,23.0,11.0,18.0,15.0,120,20,13.0,31.0,13.0,27,3.0,109,18.0,4.0,31.0,25.0,68,1.0,2.0,119.0,74,120,29.0,120,33.0,25.0,17.0,16.0,77,13,25.0,11.0,40.0,116,4.0,2.0,15,12.0,11.0,9.0,14.0,15.0,18.0,30,13.0,4.0,24.0,8.0,9.0,17.0,,5.0,58,42.0,5.0,120.0,120,120,80,21.0,120,19.0,28.0,38,120,7.0,15.0,,6.0,40,30.0,59.0,23,7.0,32,8.0,9,32,45,15,8.0,12.0,5.0,27.0,4.0,,5.0,2.0,12.0,14.0,6.0,17,98,36,7.0,4.0,120.0,55,20,3.0,90,10,20,7.0,16.0,,4.0,5,31.0,,10.0,56.0,13.0,10,17.0,120,81,12.0,6,10.0,11.0,19.0,59,9.0,3.0,13.0,5.0,52,71,33.0,4.0,33.0,,4.0,11.0,109.0,9.0,9.0,7.0,,44,2.0,30.0,12.0,7.0,75,19.0,13.0,14.0,22,76,14.0,18.0,8.0,119,7.0,120,120,1.0,120,17.0,6.0,120,4.0,5,120,9.0,37,120,5.0,3.0,1.0,10.0,2.0,5.0,76,7.0,120,6.0,11.0,6.0,4.0,41,3.0,12.0,29,120,6.0,76,118.0,16.0,113,39.0,6.0,3.0,9.0,3.0,19,27,13.0,56,25,24.0,32,91,6.0,22.0,12.0,110,4.0,31.0,16.0,120.0,2.0,19.0,16,35,2.0,25.0,11,4.0,120,7.0,10.0,14.0,25,4.0,,7.0,2.0,16.0,61,31.0,3.0,34.0,11.0,118,10.0,19.0,59,13.0,12.0,8.0,14.0,7.0,21,120,120,4.0,14.0,19.0,120,105,4.0,27,13.0,118,18,9.0,11,5.0,120,117,15.0,18,5.0,20.0,4.0,5.0,17.0,6,9.0,5.0,35,3.0,55,46,8,39.0,3.0,5.0,13.0,9,41.0,5.0,120,14.0,1.0,10.0,18.0,7.0,21,6.0,42,27,120,37.0,25.0,5.0,16,8.0,20.0,3.0,4.0,34,5.0,,16.0,31,22.0,,15,58,22,18.0,56,8.0,13.0,1.0,20.0,16.0,10.0,12.0,11,5.0,118,24.0,21.0,17.0,74,1.0,6.0,24.0,9.0,7.0,8.0,11,9.0,14.0,,31,,17.0,2.0,7,28.0,119,34,21.0,7.0,70,7.0,88,36,7.0,37,5.0,,17.0,74,44.0,9.0
2017-01-06,18,99,112.0,,9.0,9.0,11.0,7.0,3.0,,12.0,29.0,13.0,100.0,16.0,80,,16.0,22.0,23.0,16,6.0,12.0,14.0,6.0,14.0,10.0,57,7.0,16.0,1.0,83,9.0,61,9.0,11.0,24.0,3.0,13.0,14.0,1.0,9.0,9.0,5.0,14.0,19.0,19.0,3.0,9.0,5.0,10.0,9.0,115,6.0,9.0,120,120,6.0,2.0,72,24,8.0,116,18.0,120,18,46,73,4.0,120,19.0,120,14,34,43,4.0,13.0,30.0,8.0,35.0,20.0,5.0,6.0,49,53,9.0,26.0,5.0,30,11.0,17.0,11,9,6.0,2.0,90.0,8.0,3.0,10,7.0,69,30,41.0,12.0,10.0,2.0,31.0,120,7.0,11.0,120,5.0,7.0,18.0,14.0,6.0,30,9.0,11,9.0,13,16.0,10.0,1.0,19.0,118,7.0,22.0,17,2.0,5.0,11.0,120,7.0,17.0,7.0,,1.0,11.0,14.0,11.0,12.0,14.0,11.0,120,23,20.0,25.0,13.0,30,4.0,96,13.0,7.0,13.0,20.0,43,3.0,2.0,67.0,62,118,10.0,119,25.0,28.0,1.0,15.0,63,22,17.0,5.0,29.0,111,7.0,4.0,38,5.0,22.0,10.0,5.0,21.0,9.0,14,16.0,2.0,16.0,6.0,10.0,10.0,,1.0,72,34.0,12.0,54.0,120,114,67,8.0,120,6.0,14.0,30,119,9.0,37.0,,22.0,35,14.0,22.0,35,3.0,12,15.0,13,34,41,13,9.0,16.0,10.0,7.0,,,2.0,11.0,4.0,8.0,8.0,10,116,33,21.0,10.0,50.0,56,21,4.0,117,40,14,7.0,8.0,,7.0,11,14.0,,7.0,31.0,10.0,21,19.0,120,98,16.0,20,7.0,11.0,25.0,42,10.0,8.0,15.0,11.0,49,29,16.0,11.0,11.0,9.0,11.0,15.0,50.0,15.0,14.0,5.0,,30,1.0,5.0,8.0,9.0,75,20.0,23.0,24.0,18,87,7.0,14.0,11.0,120,33.0,120,117,6.0,120,41.0,3.0,109,2.0,6,120,3.0,7,120,5.0,4.0,15.0,4.0,3.0,6.0,69,4.0,120,6.0,1.0,3.0,1.0,21,,9.0,24,120,18.0,62,120.0,18.0,114,32.0,6.0,2.0,12.0,11.0,9,48,9.0,46,14,32.0,30,43,7.0,21.0,12.0,46,6.0,19.0,14.0,59.0,8.0,20.0,11,46,7.0,3.0,14,6.0,120,17.0,6.0,11.0,5,6.0,3.0,28.0,1.0,4.0,48,14.0,12.0,18.0,7.0,120,2.0,51.0,37,7.0,22.0,6.0,5.0,12.0,19,44,120,1.0,23.0,18.0,120,119,16.0,15,14.0,119,22,6.0,8,23.0,120,97,6.0,26,11.0,10.0,,7.0,8.0,8,9.0,14.0,41,21.0,45,30,6,28.0,6.0,34.0,6.0,32,20.0,7.0,103,8.0,10.0,5.0,8.0,23.0,36,2.0,43,73,120,19.0,12.0,5.0,25,5.0,23.0,6.0,6.0,44,4.0,,39.0,24,13.0,,17,26,25,22.0,48,8.0,5.0,2.0,66.0,11.0,12.0,9.0,13,12.0,112,11.0,13.0,40.0,81,1.0,10.0,21.0,5.0,9.0,10.0,24,11.0,3.0,,25,,15.0,27.0,10,5.0,120,31,13.0,6.0,41,4.0,79,39,,30,26.0,4.0,15.0,112,23.0,6.0
2017-01-07,13,37,40.0,,6.0,2.0,6.0,4.0,9.0,,2.0,6.0,3.0,32.0,9.0,35,2.0,7.0,17.0,23.0,7,,6.0,3.0,2.0,2.0,2.0,24,3.0,6.0,2.0,30,4.0,18,5.0,3.0,,1.0,12.0,4.0,21.0,1.0,6.0,4.0,,4.0,14.0,4.0,2.0,3.0,1.0,6.0,72,14.0,,61,120,7.0,,20,21,3.0,120,4.0,120,18,23,35,3.0,85,4.0,120,16,14,35,1.0,4.0,30.0,3.0,7.0,6.0,,1.0,25,34,1.0,2.0,8.0,21,2.0,8.0,5,16,1.0,,30.0,2.0,3.0,5,,33,13,23.0,1.0,2.0,6.0,10.0,120,1.0,3.0,61,1.0,3.0,16.0,2.0,4.0,11,3.0,3,1.0,4,2.0,,,2.0,120,15.0,9.0,5,5.0,1.0,7.0,39,3.0,18.0,,4.0,2.0,5.0,1.0,9.0,9.0,5.0,,120,8,3.0,5.0,1.0,8,2.0,48,2.0,11.0,14.0,16.0,40,3.0,3.0,18.0,32,120,7.0,120,23.0,22.0,,6.0,31,9,12.0,1.0,17.0,42,1.0,,13,2.0,7.0,3.0,,1.0,11.0,1,3.0,,10.0,3.0,3.0,11.0,2.0,,43,10.0,5.0,3.0,116,51,19,1.0,120,2.0,10.0,25,120,10.0,3.0,,4.0,18,16.0,5.0,24,2.0,3,4.0,10,16,21,5,7.0,1.0,2.0,9.0,1.0,,,,1.0,,,10,51,12,8.0,3.0,17.0,31,17,2.0,23,8,17,9.0,1.0,,4.0,8,2.0,,,8.0,8.0,14,3.0,59,30,12.0,4,3.0,7.0,7.0,25,,5.0,12.0,2.0,19,18,4.0,5.0,1.0,6.0,2.0,9.0,13.0,3.0,5.0,2.0,,31,3.0,3.0,3.0,2.0,37,3.0,6.0,6.0,15,21,5.0,14.0,,33,7.0,48,120,2.0,107,19.0,1.0,120,2.0,14,59,2.0,20,69,20.0,1.0,7.0,4.0,4.0,3.0,49,3.0,80,,5.0,4.0,6.0,13,3.0,6.0,9,70,3.0,37,18.0,11.0,119,8.0,,5.0,6.0,1.0,2,23,3.0,29,7,10.0,10,10,2.0,6.0,3.0,34,1.0,3.0,7.0,3.0,2.0,5.0,7,23,1.0,,3,1.0,120,4.0,3.0,2.0,5,1.0,2.0,10.0,1.0,3.0,22,2.0,,4.0,4.0,120,1.0,10.0,4,6.0,9.0,2.0,1.0,7.0,23,12,120,,26.0,2.0,112,44,5.0,12,2.0,116,11,2.0,5,10.0,58,24,4.0,23,4.0,4.0,3.0,1.0,2.0,11,4.0,6.0,4,8.0,26,32,13,7.0,1.0,8.0,5.0,17,18.0,6.0,58,8.0,,,1.0,4.0,11,3.0,20,29,120,4.0,5.0,15.0,11,5.0,5.0,3.0,1.0,25,3.0,1.0,16.0,15,2.0,,6,13,5,7.0,46,1.0,2.0,1.0,27.0,2.0,,3.0,11,2.0,120,,11.0,5.0,38,1.0,13.0,16.0,,6.0,3.0,8,2.0,9.0,,17,,13.0,6.0,4,9.0,118,16,4.0,1.0,24,5.0,31,26,3.0,9,6.0,,7.0,38,13.0,5.0
2017-01-08,17,31,82.0,,6.0,3.0,6.0,,4.0,,1.0,3.0,1.0,14.0,3.0,37,,2.0,17.0,26.0,1,6.0,2.0,,,1.0,2.0,14,8.0,4.0,,29,2.0,21,6.0,1.0,1.0,2.0,,1.0,3.0,5.0,5.0,1.0,,7.0,4.0,3.0,,1.0,,6.0,47,16.0,1.0,38,116,1.0,1.0,18,16,,120,6.0,120,6,17,28,1.0,62,,120,11,9,17,1.0,2.0,27.0,3.0,6.0,2.0,,8.0,7,22,1.0,1.0,,10,1.0,10.0,2,31,1.0,,19.0,3.0,4.0,10,3.0,16,20,17.0,7.0,,4.0,2.0,120,,,58,,3.0,13.0,16.0,1.0,12,1.0,3,2.0,6,10.0,6.0,,12.0,120,5.0,12.0,8,1.0,1.0,,67,1.0,7.0,2.0,1.0,2.0,4.0,2.0,11.0,9.0,1.0,11.0,120,22,10.0,7.0,1.0,8,2.0,51,2.0,11.0,12.0,10.0,42,,,16.0,52,120,2.0,120,10.0,4.0,,5.0,28,6,4.0,2.0,19.0,44,9.0,2.0,15,2.0,3.0,2.0,7.0,2.0,,14,10.0,,,1.0,2.0,9.0,,1.0,28,22.0,1.0,33.0,89,50,17,8.0,120,,15.0,8,120,4.0,4.0,,2.0,27,1.0,27.0,35,5.0,11,1.0,8,17,25,4,5.0,1.0,,7.0,,,1.0,3.0,1.0,4.0,,2,47,11,2.0,5.0,14.0,18,9,,24,18,5,12.0,3.0,,1.0,1,10.0,,2.0,7.0,2.0,9,15.0,63,25,8.0,4,3.0,6.0,14.0,40,4.0,,12.0,1.0,16,10,,8.0,13.0,1.0,,5.0,16.0,2.0,2.0,,,9,,3.0,4.0,2.0,49,2.0,5.0,2.0,11,13,4.0,10.0,3.0,50,2.0,29,119,1.0,95,27.0,4.0,119,,9,59,5.0,12,36,16.0,,2.0,3.0,1.0,4.0,40,2.0,97,2.0,,4.0,3.0,2,,6.0,18,61,,39,25.0,10.0,110,2.0,4.0,3.0,8.0,3.0,5,13,3.0,32,7,23.0,9,21,1.0,3.0,9.0,22,2.0,8.0,7.0,9.0,4.0,3.0,2,24,1.0,,9,1.0,120,1.0,2.0,2.0,7,1.0,1.0,8.0,,9.0,33,1.0,2.0,3.0,4.0,120,3.0,9.0,9,3.0,4.0,,,5.0,8,12,120,1.0,12.0,2.0,50,46,3.0,5,1.0,65,6,4.0,2,4.0,70,27,5.0,7,1.0,1.0,2.0,,,11,2.0,19.0,12,1.0,10,17,7,6.0,2.0,4.0,9.0,4,21.0,2.0,49,10.0,2.0,2.0,,2.0,11,1.0,10,33,120,1.0,9.0,3.0,15,3.0,10.0,4.0,1.0,28,,1.0,14.0,7,2.0,,2,11,14,10.0,52,4.0,1.0,2.0,12.0,3.0,,1.0,7,2.0,117,2.0,4.0,14.0,45,4.0,3.0,9.0,,2.0,1.0,6,3.0,12.0,,6,,2.0,6.0,6,5.0,93,8,5.0,3.0,17,6.0,29,16,5.0,13,4.0,,10.0,32,12.0,3.0
2017-01-09,110,92,45.0,,3.0,11.0,8.0,5.0,7.0,,8.0,6.0,7.0,120.0,20.0,120,6.0,1.0,17.0,28.0,9,11.0,7.0,9.0,4.0,13.0,4.0,33,5.0,14.0,10.0,110,15.0,12,10.0,6.0,2.0,3.0,25.0,9.0,9.0,9.0,9.0,7.0,20.0,10.0,8.0,4.0,4.0,14.0,1.0,15.0,113,12.0,8.0,95,120,5.0,,68,120,9.0,120,22.0,120,11,42,67,13.0,120,3.0,120,14,31,30,2.0,6.0,35.0,9.0,10.0,4.0,10.0,6.0,120,42,2.0,6.0,5.0,39,7.0,43.0,7,10,7.0,5.0,100.0,3.0,2.0,15,7.0,54,27,23.0,7.0,5.0,11.0,17.0,120,,13.0,120,6.0,3.0,14.0,21.0,10.0,15,23.0,6,9.0,4,7.0,12.0,4.0,9.0,120,24.0,10.0,18,1.0,4.0,25.0,85,18.0,26.0,9.0,,10.0,28.0,11.0,19.0,10.0,13.0,4.0,120,104,9.0,10.0,12.0,32,13.0,91,6.0,14.0,8.0,33.0,87,6.0,,46.0,113,120,21.0,120,12.0,9.0,1.0,36.0,59,23,11.0,20.0,26.0,118,17.0,6.0,19,23.0,3.0,8.0,12.0,8.0,9.0,11,14.0,3.0,21.0,3.0,6.0,9.0,7.0,1.0,61,36.0,2.0,20.0,120,120,120,13.0,120,8.0,9.0,28,120,13.0,11.0,,1.0,42,14.0,18.0,59,1.0,10,3.0,14,47,34,17,22.0,4.0,9.0,49.0,3.0,4.0,4.0,5.0,16.0,,4.0,15,120,40,15.0,4.0,79.0,108,27,2.0,63,11,12,9.0,5.0,,1.0,10,10.0,,15.0,27.0,4.0,30,22.0,120,72,16.0,22,6.0,4.0,25.0,31,7.0,6.0,120.0,4.0,42,28,1.0,6.0,10.0,8.0,4.0,12.0,20.0,7.0,12.0,4.0,,25,1.0,15.0,,9.0,65,8.0,11.0,20.0,40,54,32.0,8.0,2.0,120,14.0,70,120,13.0,120,27.0,5.0,120,10.0,27,116,27.0,19,120,3.0,1.0,2.0,11.0,2.0,4.0,72,9.0,120,6.0,4.0,29.0,2.0,34,1.0,7.0,78,120,16.0,50,29.0,13.0,120,17.0,4.0,2.0,9.0,9.0,10,28,15.0,45,29,18.0,62,22,6.0,18.0,11.0,27,6.0,23.0,16.0,22.0,7.0,18.0,13,50,3.0,3.0,6,7.0,120,28.0,3.0,4.0,30,2.0,3.0,7.0,1.0,7.0,30,24.0,1.0,4.0,1.0,120,2.0,12.0,36,7.0,9.0,1.0,5.0,4.0,35,38,120,4.0,9.0,8.0,55,60,3.0,53,8.0,119,9,9.0,17,11.0,120,69,11.0,23,12.0,11.0,,4.0,2.0,12,2.0,11.0,39,18.0,31,34,6,16.0,11.0,3.0,7.0,12,18.0,7.0,118,11.0,,12.0,,6.0,24,5.0,53,48,120,12.0,6.0,14.0,22,9.0,15.0,2.0,2.0,38,7.0,3.0,7.0,18,10.0,,57,11,23,17.0,59,10.0,18.0,,37.0,16.0,1.0,7.0,16,14.0,120,,13.0,14.0,74,2.0,44.0,8.0,8.0,5.0,2.0,27,20.0,6.0,,18,,10.0,6.0,10,7.0,116,12,10.0,6.0,31,1.0,79,27,10.0,35,7.0,4.0,12.0,120,26.0,4.0
2017-01-10,50,120,37.0,,30.0,16.0,18.0,4.0,14.0,,8.0,8.0,7.0,120.0,30.0,86,3.0,3.0,22.0,22.0,28,7.0,13.0,1.0,9.0,8.0,16.0,36,26.0,20.0,26.0,120,9.0,27,10.0,11.0,10.0,5.0,8.0,6.0,2.0,16.0,15.0,11.0,9.0,16.0,47.0,10.0,1.0,4.0,17.0,5.0,111,7.0,5.0,120,120,10.0,,120,48,4.0,120,28.0,120,26,64,93,13.0,120,20.0,120,13,35,43,18.0,23.0,56.0,6.0,24.0,9.0,1.0,2.0,77,69,10.0,5.0,19.0,49,14.0,120.0,13,12,12.0,4.0,36.0,10.0,3.0,16,6.0,83,27,40.0,3.0,4.0,14.0,6.0,120,6.0,12.0,120,6.0,7.0,13.0,26.0,6.0,13,9.0,6,10.0,8,10.0,7.0,6.0,21.0,120,16.0,18.0,23,5.0,7.0,19.0,66,19.0,18.0,5.0,5.0,3.0,29.0,7.0,13.0,4.0,17.0,6.0,120,27,3.0,13.0,7.0,28,8.0,120,4.0,2.0,8.0,28.0,94,5.0,6.0,25.0,101,120,15.0,120,17.0,10.0,16.0,16.0,60,11,8.0,11.0,18.0,120,16.0,3.0,27,15.0,5.0,8.0,7.0,3.0,12.0,12,1.0,1.0,10.0,1.0,10.0,9.0,,1.0,83,40.0,6.0,21.0,118,120,105,18.0,120,8.0,5.0,35,120,5.0,9.0,,7.0,33,15.0,13.0,120,3.0,16,26.0,13,44,56,17,6.0,7.0,3.0,13.0,6.0,3.0,10.0,10.0,17.0,10.0,11.0,6,105,65,13.0,5.0,57.0,75,17,5.0,101,20,16,5.0,26.0,1.0,7.0,14,20.0,,8.0,15.0,13.0,7,13.0,120,65,12.0,16,8.0,13.0,24.0,38,23.0,4.0,52.0,5.0,47,58,6.0,24.0,6.0,9.0,8.0,9.0,70.0,18.0,6.0,5.0,,29,1.0,23.0,5.0,19.0,91,16.0,3.0,8.0,29,59,21.0,5.0,6.0,108,5.0,31,120,10.0,120,24.0,7.0,120,6.0,26,120,7.0,20,107,3.0,1.0,15.0,5.0,1.0,4.0,90,4.0,120,6.0,1.0,7.0,4.0,33,3.0,9.0,57,120,11.0,45,15.0,9.0,120,31.0,6.0,37.0,9.0,14.0,3,25,23.0,37,25,22.0,65,25,11.0,17.0,14.0,34,47.0,24.0,37.0,11.0,14.0,13.0,17,60,5.0,8.0,8,13.0,120,33.0,9.0,4.0,12,1.0,,15.0,2.0,6.0,67,16.0,6.0,37.0,3.0,120,3.0,26.0,46,7.0,6.0,6.0,4.0,4.0,35,23,120,2.0,13.0,11.0,55,103,5.0,23,8.0,119,29,17.0,19,5.0,120,110,9.0,26,8.0,2.0,9.0,5.0,14.0,13,6.0,52.0,35,9.0,56,33,5,19.0,24.0,4.0,6.0,30,19.0,2.0,120,25.0,7.0,10.0,11.0,8.0,16,5.0,69,58,120,8.0,20.0,4.0,28,10.0,70.0,19.0,,32,14.0,2.0,13.0,15,9.0,,22,51,22,13.0,53,6.0,12.0,1.0,41.0,31.0,4.0,8.0,26,18.0,120,4.0,6.0,6.0,111,3.0,25.0,22.0,3.0,20.0,7.0,18,14.0,5.0,,41,,28.0,7.0,14,5.0,120,11,10.0,5.0,18,16.0,63,31,8.0,41,16.0,2.0,2.0,90,40.0,10.0
2017-01-11,44,120,20.0,,10.0,9.0,14.0,7.0,8.0,,5.0,8.0,4.0,112.0,16.0,91,5.0,3.0,10.0,39.0,20,15.0,9.0,9.0,5.0,12.0,14.0,21,17.0,26.0,18.0,120,10.0,31,5.0,6.0,2.0,11.0,17.0,14.0,18.0,11.0,10.0,4.0,10.0,22.0,22.0,20.0,2.0,8.0,13.0,2.0,120,7.0,6.0,81,120,7.0,9.0,89,66,11.0,120,20.0,120,21,86,97,6.0,120,12.0,120,26,52,34,6.0,9.0,20.0,3.0,39.0,3.0,5.0,6.0,27,82,17.0,6.0,8.0,38,4.0,92.0,21,6,10.0,9.0,30.0,3.0,5.0,17,5.0,90,21,22.0,9.0,4.0,9.0,9.0,120,8.0,7.0,111,8.0,4.0,9.0,15.0,11.0,16,9.0,11,4.0,25,15.0,8.0,6.0,13.0,120,6.0,9.0,34,2.0,15.0,22.0,120,21.0,26.0,27.0,5.0,1.0,22.0,9.0,17.0,5.0,13.0,10.0,120,46,5.0,27.0,3.0,25,28.0,120,11.0,9.0,15.0,14.0,88,3.0,7.0,30.0,77,120,7.0,120,18.0,5.0,5.0,13.0,51,38,9.0,21.0,23.0,118,1.0,3.0,5,7.0,8.0,13.0,14.0,4.0,14.0,9,8.0,1.0,16.0,,14.0,8.0,8.0,10.0,60,45.0,6.0,42.0,63,120,86,9.0,120,8.0,28.0,36,120,4.0,7.0,,1.0,39,6.0,7.0,37,14.0,8,18.0,16,58,53,16,7.0,6.0,3.0,25.0,4.0,1.0,7.0,3.0,8.0,3.0,5.0,23,120,51,6.0,3.0,33.0,64,28,1.0,115,39,18,6.0,62.0,,5.0,6,16.0,,7.0,8.0,20.0,15,9.0,120,58,22.0,14,6.0,5.0,8.0,39,48.0,9.0,18.0,25.0,42,34,1.0,13.0,20.0,4.0,9.0,5.0,66.0,7.0,8.0,9.0,,38,1.0,17.0,5.0,6.0,69,21.0,6.0,9.0,65,68,6.0,5.0,5.0,118,7.0,35,118,10.0,120,23.0,5.0,120,3.0,16,120,5.0,24,105,9.0,2.0,6.0,7.0,,13.0,103,8.0,120,3.0,,22.0,9.0,112,1.0,27.0,52,120,27.0,94,18.0,2.0,120,14.0,11.0,9.0,9.0,5.0,8,24,13.0,41,28,25.0,65,29,6.0,4.0,13.0,43,22.0,22.0,18.0,8.0,7.0,10.0,16,41,5.0,8.0,9,6.0,120,17.0,11.0,6.0,14,1.0,5.0,14.0,3.0,3.0,58,30.0,3.0,20.0,10.0,120,7.0,48.0,119,23.0,6.0,5.0,11.0,7.0,31,70,120,5.0,61.0,8.0,66,120,2.0,10,19.0,110,37,11.0,11,14.0,120,120,8.0,18,6.0,3.0,6.0,5.0,14.0,7,11.0,34.0,36,5.0,44,34,7,3.0,23.0,7.0,7.0,47,31.0,10.0,120,17.0,5.0,10.0,2.0,10.0,23,3.0,67,30,120,5.0,11.0,5.0,40,8.0,61.0,4.0,4.0,45,19.0,,16.0,15,18.0,,21,112,21,10.0,92,16.0,7.0,2.0,30.0,20.0,4.0,8.0,15,17.0,120,5.0,9.0,8.0,91,2.0,18.0,16.0,4.0,14.0,7.0,31,18.0,4.0,,54,,25.0,1.0,10,7.0,117,24,12.0,9.0,23,7.0,85,16,9.0,10,10.0,4.0,9.0,87,18.0,1.0
2017-01-12,47,99,29.0,,30.0,11.0,17.0,3.0,7.0,,7.0,18.0,6.0,56.0,20.0,61,8.0,3.0,30.0,24.0,27,6.0,8.0,14.0,4.0,8.0,5.0,13,10.0,34.0,8.0,120,6.0,41,8.0,5.0,6.0,8.0,56.0,3.0,9.0,5.0,7.0,3.0,13.0,29.0,16.0,13.0,3.0,9.0,9.0,7.0,120,4.0,24.0,28,120,9.0,6.0,63,45,16.0,120,27.0,120,8,61,85,1.0,118,17.0,120,24,64,74,1.0,10.0,90.0,8.0,19.0,3.0,2.0,8.0,31,120,9.0,10.0,12.0,27,6.0,29.0,23,14,6.0,1.0,24.0,8.0,1.0,14,7.0,70,23,35.0,18.0,5.0,15.0,16.0,120,1.0,7.0,123,1.0,8.0,9.0,17.0,8.0,7,20.0,7,27.0,17,7.0,7.0,12.0,5.0,118,6.0,28.0,12,2.0,10.0,24.0,120,60.0,85.0,5.0,,,30.0,24.0,12.0,5.0,9.0,6.0,120,30,19.0,15.0,3.0,20,14.0,120,4.0,6.0,16.0,11.0,100,21.0,10.0,14.0,113,120,4.0,120,13.0,6.0,7.0,6.0,41,65,16.0,16.0,33.0,120,9.0,5.0,14,2.0,15.0,9.0,6.0,1.0,21.0,14,12.0,2.0,21.0,6.0,11.0,2.0,4.0,9.0,34,26.0,10.0,9.0,72,78,53,5.0,120,4.0,15.0,48,120,18.0,6.0,,4.0,89,17.0,4.0,31,4.0,24,15.0,8,32,120,56,5.0,8.0,5.0,19.0,7.0,3.0,2.0,2.0,6.0,14.0,5.0,20,111,29,6.0,3.0,44.0,43,24,5.0,74,24,23,9.0,11.0,,5.0,6,19.0,,3.0,5.0,16.0,13,9.0,120,60,71.0,12,6.0,6.0,15.0,54,23.0,13.0,28.0,5.0,38,44,6.0,3.0,18.0,7.0,9.0,37.0,38.0,18.0,6.0,4.0,,56,21.0,13.0,5.0,3.0,80,13.0,5.0,15.0,20,69,12.0,8.0,7.0,120,8.0,44,108,7.0,114,7.0,6.0,120,7.0,23,119,10.0,34,29,4.0,,2.0,9.0,2.0,15.0,76,7.0,120,6.0,,9.0,5.0,91,3.0,19.0,25,120,9.0,81,20.0,6.0,120,12.0,7.0,10.0,7.0,6.0,8,16,17.0,44,26,16.0,52,25,10.0,29.0,17.0,44,15.0,38.0,28.0,13.0,5.0,16.0,28,37,7.0,2.0,4,3.0,120,15.0,54.0,6.0,16,9.0,2.0,25.0,2.0,95.0,45,12.0,6.0,18.0,5.0,120,3.0,23.0,120,18.0,15.0,11.0,13.0,8.0,44,27,120,5.0,34.0,19.0,50,84,8.0,25,3.0,120,21,15.0,12,7.0,120,111,4.0,22,3.0,15.0,3.0,4.0,4.0,18,10.0,9.0,36,4.0,52,32,12,8.0,9.0,,2.0,31,18.0,3.0,120,10.0,4.0,6.0,9.0,4.0,13,8.0,58,42,119,10.0,14.0,3.0,33,4.0,22.0,3.0,7.0,35,6.0,4.0,30.0,22,21.0,,20,70,13,22.0,94,15.0,12.0,1.0,20.0,20.0,5.0,11.0,17,17.0,120,23.0,6.0,13.0,105,6.0,7.0,20.0,4.0,11.0,2.0,18,6.0,1.0,,30,,20.0,1.0,5,8.0,120,20,9.0,2.0,21,5.0,89,34,5.0,25,14.0,5.0,3.0,120,21.0,15.0
2017-01-13,35,86,17.0,,14.0,10.0,13.0,8.0,4.0,,6.0,19.0,3.0,36.0,3.0,54,2.0,4.0,22.0,30.0,19,3.0,7.0,7.0,3.0,11.0,8.0,17,10.0,26.0,5.0,118,5.0,11,36.0,10.0,6.0,8.0,20.0,12.0,6.0,6.0,6.0,4.0,10.0,15.0,12.0,7.0,2.0,3.0,14.0,7.0,120,4.0,6.0,32,120,6.0,5.0,72,49,9.0,120,12.0,120,8,41,48,2.0,106,14.0,120,35,76,60,3.0,8.0,52.0,16.0,9.0,11.0,10.0,4.0,23,98,14.0,7.0,5.0,19,3.0,28.0,30,11,12.0,5.0,14.0,4.0,2.0,11,19.0,120,20,17.0,2.0,2.0,8.0,7.0,120,,12.0,114,4.0,3.0,8.0,11.0,11.0,13,7.0,2,7.0,12,6.0,6.0,6.0,10.0,120,4.0,22.0,34,9.0,3.0,7.0,113,24.0,120.0,8.0,2.0,7.0,17.0,10.0,21.0,13.0,14.0,12.0,120,17,17.0,4.0,2.0,57,5.0,92,3.0,9.0,18.0,9.0,43,5.0,7.0,18.0,120,120,2.0,120,12.0,9.0,1.0,9.0,52,34,11.0,11.0,24.0,48,6.0,5.0,10,13.0,6.0,11.0,16.0,3.0,22.0,7,4.0,2.0,20.0,,17.0,3.0,5.0,4.0,35,7.0,3.0,12.0,74,65,33,5.0,120,8.0,7.0,27,120,7.0,10.0,,19.0,120,6.0,16.0,47,4.0,15,3.0,28,17,57,17,8.0,9.0,3.0,20.0,3.0,2.0,5.0,4.0,6.0,9.0,2.0,9,118,28,14.0,3.0,25.0,56,17,9.0,91,34,19,3.0,14.0,,2.0,4,8.0,,3.0,10.0,11.0,13,11.0,120,44,23.0,13,11.0,4.0,13.0,46,11.0,11.0,24.0,18.0,53,33,10.0,16.0,17.0,8.0,11.0,14.0,19.0,7.0,11.0,13.0,,29,11.0,11.0,1.0,4.0,54,11.0,12.0,10.0,20,67,13.0,21.0,11.0,73,23.0,28,120,12.0,120,8.0,4.0,120,22.0,35,95,5.0,38,54,21.0,4.0,,3.0,2.0,7.0,85,26.0,120,8.0,13.0,6.0,10.0,120,13.0,13.0,36,120,9.0,48,14.0,14.0,120,10.0,4.0,5.0,1.0,13.0,10,20,14.0,41,49,9.0,39,37,3.0,4.0,19.0,42,16.0,24.0,17.0,4.0,7.0,9.0,120,36,3.0,5.0,9,3.0,120,9.0,73.0,9.0,18,6.0,4.0,23.0,2.0,36.0,96,19.0,2.0,6.0,,120,4.0,19.0,51,3.0,4.0,1.0,17.0,14.0,21,35,120,4.0,12.0,7.0,70,47,12.0,23,4.0,120,14,12.0,7,5.0,120,120,5.0,22,8.0,7.0,1.0,7.0,8.0,6,4.0,7.0,26,3.0,33,38,16,13.0,9.0,3.0,7.0,28,16.0,4.0,120,10.0,10.0,4.0,13.0,44.0,19,5.0,51,30,120,7.0,8.0,3.0,40,3.0,14.0,3.0,2.0,38,7.0,6.0,11.0,23,10.0,,15,26,17,12.0,42,10.0,15.0,12.0,16.0,35.0,5.0,5.0,15,12.0,120,3.0,10.0,6.0,91,4.0,24.0,22.0,4.0,6.0,7.0,19,4.0,3.0,,32,,35.0,7.0,18,25.0,119,18,6.0,3.0,17,9.0,60,5,2.0,13,13.0,5.0,9.0,97,29.0,11.0
2017-01-14,33,27,9.0,,6.0,6.0,,4.0,6.0,,2.0,5.0,,19.0,11.0,15,1.0,,16.0,20.0,6,4.0,1.0,4.0,7.0,4.0,4.0,5,9.0,16.0,1.0,32,,3,3.0,2.0,,3.0,2.0,4.0,1.0,1.0,1.0,2.0,3.0,9.0,2.0,5.0,4.0,2.0,4.0,6.0,52,2.0,3.0,10,120,3.0,,23,21,5.0,120,5.0,110,4,15,20,6.0,54,,120,16,20,33,11.0,6.0,22.0,14.0,2.0,1.0,3.0,,11,18,4.0,1.0,3.0,15,1.0,10.0,12,9,3.0,1.0,12.0,1.0,2.0,5,1.0,60,6,6.0,5.0,2.0,1.0,2.0,120,1.0,5.0,48,3.0,,2.0,1.0,,3,6.0,3,4.0,4,5.0,1.0,2.0,2.0,120,5.0,13.0,5,7.0,4.0,1.0,57,5.0,15.0,5.0,1.0,14.0,9.0,11.0,7.0,2.0,5.0,4.0,120,11,4.0,3.0,3.0,10,1.0,67,7.0,,7.0,6.0,52,4.0,4.0,25.0,66,120,4.0,120,1.0,1.0,3.0,1.0,10,19,3.0,7.0,18.0,22,3.0,2.0,2,1.0,3.0,2.0,3.0,5.0,6.0,5,2.0,,4.0,1.0,1.0,4.0,2.0,1.0,17,6.0,3.0,3.0,39,37,10,,120,1.0,4.0,12,120,,4.0,,8.0,23,10.0,5.0,13,7.0,4,3.0,12,10,14,12,5.0,7.0,,9.0,3.0,,6.0,2.0,1.0,1.0,1.0,7,120,30,4.0,4.0,8.0,24,9,3.0,43,12,6,1.0,26.0,2.0,,5,16.0,,1.0,4.0,10.0,12,,120,41,3.0,11,7.0,2.0,6.0,11,10.0,4.0,8.0,6.0,5,15,6.0,56.0,10.0,6.0,12.0,7.0,9.0,3.0,7.0,8.0,,23,3.0,8.0,2.0,,20,10.0,3.0,3.0,24,14,2.0,3.0,1.0,28,6.0,43,67,2.0,106,6.0,,119,5.0,11,44,3.0,12,22,4.0,,2.0,1.0,5.0,3.0,48,6.0,96,3.0,11.0,4.0,,26,1.0,7.0,21,60,1.0,18,26.0,6.0,120,7.0,,1.0,6.0,,5,16,,38,35,7.0,25,11,,4.0,2.0,14,6.0,4.0,3.0,4.0,,3.0,39,31,1.0,2.0,4,2.0,120,4.0,12.0,5.0,6,1.0,3.0,11.0,2.0,11.0,22,2.0,1.0,5.0,2.0,72,1.0,12.0,22,,3.0,1.0,,6.0,18,6,120,2.0,15.0,2.0,37,21,8.0,10,5.0,77,1,7.0,4,1.0,92,45,7.0,14,1.0,3.0,,3.0,1.0,6,5.0,6.0,25,2.0,10,37,5,16.0,2.0,,4.0,4,10.0,2.0,103,8.0,2.0,3.0,3.0,13.0,11,1.0,50,10,120,5.0,4.0,3.0,31,2.0,6.0,,2.0,28,5.0,,2.0,13,1.0,,3,21,7,6.0,45,5.0,5.0,4.0,2.0,15.0,6.0,2.0,17,6.0,95,1.0,3.0,3.0,46,4.0,,20.0,1.0,1.0,,9,4.0,,,6,,5.0,4.0,12,7.0,120,4,10.0,2.0,17,4.0,27,10,7.0,10,3.0,1.0,11.0,27,23.0,6.0
2017-01-15,31,27,11.0,,,10.0,11.0,2.0,4.0,,,2.0,1.0,16.0,1.0,17,3.0,1.0,21.0,,4,15.0,,,3.0,,2.0,9,8.0,11.0,,54,1.0,25,8.0,2.0,1.0,1.0,8.0,3.0,19.0,1.0,5.0,1.0,4.0,14.0,21.0,,2.0,5.0,1.0,1.0,51,1.0,,19,111,2.0,,30,24,4.0,120,,120,6,22,19,1.0,103,6.0,120,15,16,48,11.0,1.0,11.0,6.0,7.0,1.0,8.0,3.0,1,6,1.0,,6.0,21,1.0,3.0,5,17,5.0,2.0,5.0,1.0,2.0,6,3.0,29,17,7.0,4.0,1.0,3.0,1.0,120,2.0,3.0,102,1.0,1.0,2.0,2.0,,3,1.0,3,2.0,3,1.0,1.0,,3.0,120,3.0,15.0,6,2.0,2.0,24.0,73,8.0,4.0,,,,2.0,7.0,9.0,1.0,5.0,,120,1,3.0,3.0,,12,9.0,60,2.0,1.0,,6.0,47,,2.0,26.0,64,120,2.0,120,5.0,7.0,1.0,7.0,15,15,,3.0,13.0,59,3.0,2.0,4,,4.0,1.0,6.0,9.0,12.0,4,1.0,,4.0,1.0,1.0,5.0,,1.0,26,32.0,8.0,,72,29,28,,120,2.0,4.0,14,120,5.0,4.0,,1.0,20,10.0,2.0,12,1.0,3,18.0,8,6,23,7,,,,8.0,,,2.0,,1.0,1.0,,1,90,9,4.0,2.0,41.0,21,10,1.0,43,5,1,1.0,21.0,,1.0,6,5.0,,2.0,6.0,6.0,12,1.0,104,22,2.0,7,10.0,,14.0,9,1.0,,3.0,2.0,11,20,4.0,10.0,5.0,1.0,4.0,3.0,14.0,3.0,3.0,2.0,,28,12.0,6.0,,1.0,42,12.0,2.0,8.0,18,24,2.0,1.0,2.0,50,,13,92,2.0,100,1.0,5.0,120,,7,68,1.0,13,25,1.0,1.0,,1.0,4.0,3.0,31,4.0,88,,,1.0,1.0,19,,7.0,28,52,2.0,41,3.0,7.0,120,8.0,1.0,3.0,13.0,,2,13,7.0,39,4,18.0,37,9,,10.0,1.0,26,8.0,19.0,5.0,3.0,4.0,3.0,31,40,1.0,1.0,16,3.0,120,8.0,3.0,6.0,7,4.0,3.0,10.0,,1.0,23,1.0,4.0,3.0,1.0,120,,4.0,11,,1.0,3.0,5.0,1.0,3,8,120,,5.0,13.0,28,35,3.0,8,5.0,35,2,6.0,3,1.0,68,47,2.0,14,2.0,1.0,2.0,,,2,2.0,1.0,17,,15,29,5,12.0,4.0,,,10,20.0,9.0,57,13.0,,5.0,3.0,2.0,5,5.0,30,11,120,3.0,12.0,,18,3.0,15.0,2.0,,39,6.0,1.0,8.0,15,,,11,31,3,8.0,42,,1.0,1.0,4.0,8.0,5.0,2.0,9,2.0,120,9.0,1.0,,41,1.0,12.0,30.0,,,1.0,6,5.0,,,7,,2.0,3.0,5,6.0,88,8,3.0,1.0,19,1.0,53,10,,9,4.0,1.0,5.0,55,24.0,1.0
2017-01-16,72,38,23.0,2.0,5.0,10.0,5.0,2.0,7.0,,3.0,8.0,10.0,20.0,9.0,27,2.0,2.0,24.0,26.0,17,2.0,8.0,4.0,,3.0,3.0,15,3.0,38.0,2.0,40,6.0,28,3.0,4.0,4.0,8.0,10.0,3.0,8.0,4.0,9.0,7.0,,15.0,11.0,4.0,1.0,5.0,1.0,2.0,74,6.0,3.0,8,120,5.0,5.0,37,26,6.0,120,12.0,120,4,33,13,6.0,71,2.0,120,18,32,42,12.0,4.0,20.0,13.0,4.0,4.0,2.0,1.0,19,46,3.0,5.0,,13,8.0,13.0,23,16,2.0,3.0,4.0,5.0,1.0,15,1.0,62,18,14.0,6.0,,1.0,2.0,120,,8.0,52,7.0,3.0,7.0,6.0,8.0,5,5.0,6,6.0,8,1.0,3.0,4.0,3.0,120,7.0,7.0,10,3.0,5.0,6.0,64,15.0,11.0,2.0,3.0,4.0,17.0,18.0,11.0,7.0,18.0,8.0,120,4,4.0,11.0,1.0,24,10.0,70,1.0,2.0,7.0,7.0,62,2.0,8.0,31.0,86,120,6.0,120,1.0,7.0,5.0,5.0,21,14,5.0,10.0,17.0,51,3.0,6.0,6,10.0,3.0,3.0,2.0,2.0,15.0,7,4.0,2.0,4.0,4.0,4.0,2.0,2.0,2.0,34,32.0,5.0,4.0,46,31,15,6.0,120,7.0,6.0,17,120,8.0,4.0,,6.0,35,11.0,9.0,32,2.0,13,5.0,14,13,33,26,9.0,1.0,3.0,14.0,1.0,1.0,6.0,3.0,8.0,3.0,2.0,11,119,25,7.0,5.0,8.0,34,14,2.0,51,6,8,4.0,14.0,,2.0,9,7.0,,,7.0,8.0,10,8.0,119,44,11.0,10,8.0,17.0,9.0,26,5.0,3.0,11.0,4.0,13,13,3.0,17.0,8.0,3.0,3.0,12.0,11.0,6.0,4.0,5.0,,24,6.0,13.0,1.0,4.0,33,8.0,12.0,8.0,25,58,7.0,4.0,3.0,63,3.0,24,112,6.0,114,1.0,6.0,120,5.0,13,45,4.0,22,29,9.0,4.0,2.0,1.0,,4.0,51,9.0,97,8.0,4.0,2.0,2.0,21,1.0,4.0,31,73,6.0,25,6.0,7.0,120,16.0,1.0,4.0,5.0,7.0,4,10,6.0,49,27,11.0,29,14,3.0,7.0,8.0,26,7.0,11.0,13.0,1.0,13.0,7.0,32,44,7.0,3.0,6,,120,2.0,10.0,9.0,13,4.0,1.0,12.0,6.0,5.0,41,3.0,3.0,4.0,4.0,120,5.0,12.0,6,,3.0,4.0,1.0,,7,13,120,4.0,13.0,7.0,49,24,18.0,6,3.0,52,6,10.0,6,1.0,120,91,,13,1.0,3.0,3.0,2.0,4.0,6,3.0,3.0,5,5.0,21,27,6,7.0,73.0,3.0,2.0,16,30.0,7.0,93,5.0,6.0,7.0,3.0,16.0,8,2.0,26,19,120,3.0,11.0,1.0,23,4.0,23.0,2.0,1.0,38,4.0,,9.0,22,10.0,,10,36,7,14.0,45,14.0,4.0,3.0,15.0,10.0,,11.0,14,3.0,120,4.0,1.0,4.0,67,,8.0,19.0,1.0,3.0,5.0,13,16.0,,,20,,12.0,6.0,8,4.0,120,7,6.0,2.0,6,4.0,46,28,7.0,4,5.0,2.0,1.0,56,35.0,6.0
2017-01-17,119,103,35.0,,7.0,8.0,5.0,,9.0,,11.0,10.0,6.0,25.0,28.0,75,6.0,2.0,31.0,47.0,26,10.0,2.0,7.0,5.0,8.0,5.0,16,9.0,120.0,8.0,81,10.0,24,10.0,6.0,3.0,8.0,4.0,9.0,13.0,15.0,84.0,14.0,27.0,15.0,24.0,17.0,9.0,7.0,20.0,1.0,120,8.0,9.0,21,120,17.0,6.0,67,45,24.0,120,18.0,120,4,27,62,5.0,120,6.0,120,81,51,87,4.0,4.0,28.0,7.0,20.0,6.0,8.0,1.0,29,26,3.0,9.0,6.0,26,12.0,13.0,29,26,7.0,5.0,6.0,2.0,1.0,14,7.0,63,32,13.0,5.0,3.0,4.0,9.0,120,4.0,10.0,116,47.0,6.0,7.0,13.0,6.0,9,7.0,34,10.0,8,3.0,17.0,12.0,55.0,120,11.0,9.0,25,8.0,2.0,10.0,120,19.0,58.0,4.0,7.0,8.0,8.0,45.0,24.0,11.0,16.0,13.0,120,13,23.0,17.0,,44,4.0,110,11.0,11.0,36.0,9.0,99,13.0,8.0,34.0,120,120,5.0,120,8.0,35.0,2.0,,35,49,10.0,21.0,16.0,112,2.0,,11,5.0,2.0,6.0,21.0,1.0,40.0,16,8.0,5.0,14.0,6.0,14.0,5.0,6.0,3.0,46,33.0,7.0,34.0,76,116,76,9.0,120,6.0,8.0,21,120,43.0,11.0,,3.0,57,10.0,11.0,89,7.0,18,24.0,12,21,54,22,5.0,32.0,7.0,31.0,16.0,1.0,7.0,13.0,4.0,3.0,14.0,13,119,38,20.0,5.0,83.0,50,20,3.0,120,21,17,7.0,12.0,2.0,5.0,7,9.0,,6.0,90.0,27.0,32,3.0,120,94,10.0,8,13.0,47.0,34.0,31,35.0,6.0,4.0,11.0,120,30,43.0,24.0,8.0,9.0,26.0,15.0,22.0,7.0,10.0,13.0,,32,11.0,8.0,6.0,9.0,120,16.0,3.0,9.0,24,56,25.0,5.0,10.0,68,1.0,35,120,6.0,120,10.0,6.0,120,10.0,21,120,11.0,27,63,6.0,4.0,5.0,5.0,7.0,10.0,119,6.0,120,8.0,3.0,4.0,14.0,89,6.0,3.0,67,120,18.0,59,25.0,8.0,120,38.0,7.0,11.0,1.0,5.0,14,50,6.0,49,19,28.0,44,37,2.0,15.0,11.0,39,21.0,36.0,14.0,14.0,3.0,9.0,41,53,2.0,1.0,13,15.0,120,7.0,113.0,10.0,23,4.0,4.0,24.0,9.0,30.0,72,7.0,7.0,74.0,10.0,120,9.0,10.0,14,8.0,5.0,9.0,8.0,6.0,12,19,120,,63.0,23.0,50,64,33.0,9,12.0,120,14,12.0,10,10.0,120,120,7.0,27,13.0,9.0,2.0,6.0,13.0,9,18.0,13.0,26,20.0,40,36,18,16.0,120.0,2.0,7.0,30,19.0,7.0,120,8.0,10.0,8.0,13.0,5.0,18,4.0,51,39,119,12.0,26.0,2.0,22,12.0,26.0,5.0,9.0,87,11.0,,17.0,36,10.0,,21,117,11,23.0,47,11.0,13.0,2.0,16.0,37.0,4.0,17.0,30,8.0,120,4.0,16.0,2.0,115,,,31.0,4.0,8.0,7.0,14,11.0,8.0,,20,,30.0,4.0,15,15.0,120,14,10.0,1.0,22,8.0,94,28,8.0,24,8.0,3.0,10.0,103,100.0,13.0
2017-01-18,78,99,84.0,,6.0,9.0,19.0,7.0,9.0,,7.0,8.0,4.0,24.0,86.0,44,1.0,4.0,29.0,49.0,45,6.0,4.0,8.0,6.0,8.0,6.0,12,9.0,115.0,15.0,62,8.0,21,13.0,10.0,2.0,10.0,11.0,13.0,9.0,43.0,40.0,9.0,5.0,19.0,11.0,8.0,1.0,13.0,12.0,3.0,120,14.0,2.0,12,120,4.0,6.0,61,41,88.0,120,11.0,115,20,105,79,8.0,109,23.0,120,118,120,73,17.0,3.0,12.0,3.0,34.0,9.0,6.0,6.0,13,53,9.0,5.0,13.0,11,23.0,10.0,21,11,17.0,5.0,9.0,9.0,7.0,23,2.0,95,15,13.0,10.0,,9.0,3.0,120,3.0,14.0,81,34.0,6.0,12.0,14.0,7.0,7,2.0,59,10.0,10,5.0,8.0,5.0,44.0,119,15.0,47.0,27,10.0,7.0,7.0,120,12.0,29.0,8.0,10.0,4.0,10.0,120.0,17.0,5.0,21.0,10.0,118,9,12.0,14.0,3.0,23,7.0,110,14.0,6.0,34.0,17.0,115,5.0,2.0,39.0,120,120,8.0,120,16.0,24.0,9.0,,40,108,16.0,23.0,21.0,98,,4.0,19,5.0,12.0,15.0,28.0,1.0,27.0,22,12.0,1.0,16.0,12.0,13.0,19.0,3.0,5.0,46,26.0,10.0,14.0,114,113,76,7.0,120,12.0,20.0,14,120,13.0,15.0,,5.0,46,21.0,23.0,79,2.0,23,11.0,8,52,54,27,13.0,23.0,10.0,24.0,7.0,1.0,2.0,17.0,7.0,10.0,3.0,28,113,54,4.0,18.0,104.0,60,26,5.0,120,11,11,13.0,18.0,,4.0,10,22.0,,5.0,78.0,22.0,37,14.0,113,70,8.0,18,16.0,28.0,85.0,116,15.0,13.0,4.0,6.0,73,29,18.0,16.0,12.0,12.0,9.0,29.0,25.0,12.0,13.0,10.0,1.0,42,6.0,45.0,7.0,7.0,120,19.0,13.0,5.0,18,65,16.0,17.0,10.0,63,9.0,26,120,13.0,120,34.0,5.0,120,17.0,20,104,12.0,16,52,17.0,10.0,1.0,1.0,12.0,8.0,50,11.0,120,12.0,2.0,3.0,11.0,36,1.0,4.0,32,120,10.0,67,10.0,3.0,120,8.0,1.0,7.0,7.0,7.0,24,62,7.0,84,14,13.0,34,28,3.0,9.0,36.0,44,23.0,23.0,14.0,9.0,2.0,4.0,18,69,4.0,4.0,13,4.0,120,20.0,37.0,6.0,16,17.0,8.0,30.0,8.0,11.0,67,25.0,5.0,34.0,22.0,120,7.0,11.0,26,12.0,5.0,9.0,7.0,,26,18,120,3.0,38.0,5.0,41,41,16.0,29,17.0,120,68,5.0,5,25.0,120,120,12.0,63,9.0,8.0,2.0,4.0,24.0,8,12.0,7.0,29,13.0,44,39,13,28.0,71.0,2.0,6.0,32,3.0,12.0,120,16.0,2.0,8.0,11.0,10.0,15,6.0,49,43,120,17.0,19.0,3.0,28,2.0,34.0,6.0,2.0,115,21.0,2.0,7.0,73,28.0,,9,119,9,31.0,44,6.0,24.0,10.0,36.0,14.0,5.0,12.0,24,7.0,120,5.0,31.0,8.0,115,3.0,14.0,33.0,6.0,12.0,6.0,41,11.0,3.0,,34,,23.0,8.0,11,22.0,120,11,3.0,1.0,26,6.0,65,19,2.0,35,9.0,3.0,4.0,95,29.0,9.0
2017-01-19,33,63,28.0,1.0,17.0,11.0,12.0,5.0,14.0,,13.0,9.0,4.0,16.0,30.0,31,,2.0,24.0,51.0,24,6.0,14.0,7.0,4.0,6.0,21.0,14,2.0,120.0,8.0,65,2.0,39,21.0,9.0,8.0,9.0,42.0,8.0,13.0,21.0,14.0,12.0,8.0,18.0,19.0,15.0,10.0,58.0,9.0,,115,20.0,5.0,17,120,12.0,4.0,58,64,49.0,120,19.0,120,9,72,67,2.0,89,19.0,120,39,54,37,12.0,6.0,18.0,5.0,20.0,4.0,3.0,2.0,24,29,12.0,5.0,35.0,17,7.0,20.0,29,19,8.0,12.0,16.0,9.0,2.0,6,4.0,91,35,20.0,6.0,3.0,4.0,5.0,118,1.0,26.0,120,14.0,6.0,8.0,30.0,6.0,33,8.0,26,9.0,6,8.0,4.0,10.0,40.0,120,7.0,30.0,18,6.0,2.0,14.0,120,11.0,27.0,5.0,11.0,1.0,7.0,59.0,14.0,4.0,9.0,13.0,120,8,12.0,29.0,8.0,27,2.0,119,4.0,3.0,27.0,14.0,75,9.0,6.0,47.0,120,120,13.0,120,10.0,29.0,17.0,2.0,39,119,5.0,106.0,17.0,84,3.0,1.0,23,6.0,33.0,12.0,94.0,7.0,87.0,25,38.0,3.0,34.0,19.0,8.0,7.0,3.0,2.0,55,59.0,5.0,13.0,83,120,61,12.0,120,8.0,77.0,22,120,16.0,35.0,,9.0,48,14.0,15.0,113,3.0,18,12.0,12,36,26,120,7.0,5.0,4.0,19.0,14.0,,2.0,11.0,33.0,3.0,1.0,14,104,34,8.0,13.0,32.0,51,41,3.0,83,11,13,11.0,10.0,,4.0,15,24.0,,1.0,19.0,35.0,37,5.0,108,86,80.0,9,13.0,22.0,19.0,120,29.0,5.0,12.0,12.0,48,12,7.0,10.0,6.0,19.0,7.0,10.0,32.0,5.0,4.0,16.0,,20,4.0,46.0,5.0,4.0,87,9.0,9.0,7.0,22,66,8.0,16.0,5.0,76,2.0,25,119,10.0,120,18.0,2.0,119,10.0,26,120,14.0,22,68,6.0,7.0,1.0,22.0,10.0,11.0,70,12.0,120,7.0,,7.0,13.0,84,3.0,10.0,69,120,9.0,57,19.0,14.0,120,6.0,1.0,6.0,107.0,14.0,31,47,6.0,41,11,6.0,57,30,2.0,12.0,76.0,81,8.0,15.0,77.0,10.0,5.0,5.0,20,48,14.0,17.0,20,12.0,120,14.0,17.0,3.0,40,15.0,5.0,104.0,2.0,4.0,73,34.0,6.0,27.0,6.0,120,5.0,9.0,36,,9.0,7.0,15.0,9.0,13,23,120,,23.0,15.0,48,71,10.0,14,1.0,101,50,13.0,6,9.0,120,120,15.0,120,13.0,20.0,5.0,8.0,12.0,13,10.0,10.0,20,9.0,28,35,5,35.0,31.0,12.0,6.0,20,4.0,6.0,120,10.0,8.0,6.0,8.0,19.0,21,21.0,61,37,120,12.0,17.0,7.0,23,9.0,11.0,4.0,1.0,111,16.0,,24.0,87,25.0,,20,53,28,28.0,48,14.0,9.0,2.0,14.0,32.0,3.0,5.0,20,8.0,120,4.0,11.0,11.0,120,15.0,5.0,31.0,5.0,11.0,4.0,55,15.0,18.0,,27,,14.0,9.0,11,28.0,120,21,6.0,3.0,29,,68,34,13.0,23,17.0,8.0,4.0,97,24.0,13.0
2017-01-20,49,46,22.0,2.0,6.0,10.0,1.0,9.0,10.0,,16.0,6.0,14.0,14.0,22.0,37,,3.0,17.0,44.0,11,3.0,22.0,12.0,6.0,8.0,4.0,89,16.0,118.0,7.0,110,7.0,39,8.0,17.0,8.0,10.0,7.0,8.0,19.0,41.0,14.0,4.0,13.0,30.0,20.0,18.0,16.0,27.0,10.0,2.0,115,17.0,5.0,20,119,12.0,4.0,39,35,18.0,120,24.0,120,14,22,59,1.0,96,120.0,120,32,43,46,2.0,4.0,15.0,10.0,16.0,6.0,2.0,4.0,26,32,2.0,7.0,70.0,10,8.0,7.0,22,13,6.0,6.0,6.0,4.0,5.0,18,4.0,69,18,10.0,8.0,6.0,,9.0,120,2.0,48.0,104,10.0,8.0,12.0,11.0,2.0,18,12.0,37,7.0,20,10.0,3.0,10.0,24.0,115,9.0,30.0,14,10.0,1.0,37.0,120,26.0,19.0,12.0,7.0,4.0,55.0,22.0,12.0,7.0,27.0,8.0,120,30,11.0,19.0,10.0,29,6.0,120,6.0,8.0,16.0,37.0,39,2.0,6.0,33.0,99,120,22.0,120,16.0,12.0,3.0,1.0,37,35,10.0,35.0,28.0,86,5.0,,14,6.0,13.0,6.0,26.0,2.0,40.0,40,48.0,8.0,64.0,7.0,19.0,8.0,4.0,2.0,72,22.0,9.0,7.0,62,106,33,7.0,120,6.0,20.0,25,120,13.0,14.0,,5.0,38,1.0,7.0,108,1.0,14,12.0,23,74,71,120,5.0,28.0,2.0,9.0,,,2.0,10.0,15.0,9.0,14.0,15,104,18,12.0,10.0,38.0,80,36,1.0,86,21,18,29.0,10.0,,4.0,33,13.0,,7.0,18.0,75.0,32,1.0,116,56,15.0,12,3.0,13.0,10.0,112,18.0,18.0,8.0,6.0,31,41,8.0,9.0,15.0,46.0,11.0,10.0,25.0,1.0,1.0,9.0,,13,10.0,18.0,4.0,3.0,120,13.0,9.0,2.0,33,79,19.0,9.0,8.0,87,4.0,43,102,16.0,120,13.0,6.0,119,8.0,9,73,12.0,20,31,5.0,3.0,7.0,6.0,11.0,4.0,96,19.0,120,8.0,2.0,12.0,4.0,55,2.0,6.0,106,118,5.0,32,14.0,11.0,120,11.0,6.0,9.0,46.0,22.0,5,55,4.0,43,7,9.0,60,46,3.0,9.0,31.0,66,7.0,12.0,25.0,10.0,7.0,13.0,16,35,10.0,6.0,15,,119,11.0,34.0,4.0,20,7.0,2.0,33.0,1.0,10.0,59,23.0,6.0,38.0,7.0,114,10.0,12.0,30,5.0,5.0,7.0,14.0,8.0,10,112,118,5.0,13.0,14.0,32,118,6.0,7,6.0,95,59,5.0,5,9.0,120,109,10.0,111,6.0,1.0,1.0,6.0,4.0,8,29.0,39.0,37,4.0,31,10,12,37.0,26.0,6.0,7.0,17,23.0,16.0,109,10.0,11.0,4.0,10.0,6.0,13,7.0,51,25,120,12.0,16.0,3.0,39,10.0,17.0,6.0,8.0,48,12.0,2.0,44.0,123,14.0,,31,29,18,23.0,52,10.0,4.0,4.0,9.0,47.0,3.0,15.0,21,11.0,120,6.0,5.0,9.0,120,10.0,25.0,33.0,8.0,12.0,1.0,21,18.0,13.0,,19,,21.0,4.0,4,24.0,112,27,13.0,4.0,29,3.0,78,20,5.0,41,16.0,15.0,2.0,118,19.0,8.0
2017-01-21,14,21,5.0,,4.0,6.0,2.0,1.0,4.0,,3.0,1.0,9.0,2.0,10.0,11,2.0,2.0,23.0,36.0,5,10.0,1.0,2.0,5.0,2.0,7.0,26,,36.0,2.0,75,,20,2.0,6.0,2.0,2.0,2.0,1.0,6.0,5.0,4.0,6.0,,6.0,5.0,8.0,1.0,3.0,4.0,,44,10.0,3.0,5,120,9.0,1.0,20,27,5.0,120,2.0,120,7,17,25,4.0,83,37.0,120,20,15,20,4.0,3.0,12.0,5.0,10.0,3.0,8.0,2.0,18,6,2.0,2.0,16.0,8,1.0,7.0,15,16,3.0,2.0,5.0,1.0,1.0,18,1.0,35,30,13.0,2.0,,5.0,2.0,120,,6.0,68,14.0,2.0,4.0,2.0,6.0,7,3.0,7,4.0,4,7.0,2.0,9.0,6.0,120,4.0,9.0,15,4.0,1.0,4.0,104,9.0,3.0,2.0,3.0,2.0,6.0,14.0,13.0,7.0,7.0,4.0,120,4,7.0,10.0,4.0,18,4.0,57,4.0,5.0,3.0,7.0,46,,,35.0,52,120,4.0,120,2.0,6.0,3.0,2.0,16,9,7.0,8.0,19.0,67,,3.0,5,4.0,9.0,3.0,16.0,1.0,8.0,9,15.0,1.0,15.0,3.0,3.0,2.0,,3.0,37,35.0,4.0,2.0,46,31,5,,120,3.0,2.0,12,120,3.0,2.0,,,42,11.0,2.0,31,3.0,12,4.0,19,29,22,47,3.0,4.0,,4.0,2.0,,2.0,1.0,14.0,6.0,2.0,3,42,18,11.0,6.0,49.0,32,19,2.0,46,4,8,5.0,4.0,1.0,,1,2.0,,4.0,9.0,14.0,15,1.0,102,32,1.0,13,9.0,4.0,6.0,72,5.0,1.0,4.0,,18,24,4.0,1.0,7.0,8.0,7.0,11.0,13.0,1.0,4.0,6.0,,5,1.0,2.0,8.0,2.0,120,8.0,6.0,4.0,18,14,7.0,,3.0,55,5.0,32,104,3.0,65,4.0,1.0,120,6.0,8,82,2.0,12,20,1.0,,7.0,1.0,3.0,7.0,41,13.0,90,2.0,,2.0,3.0,41,4.0,5.0,56,96,13.0,20,1.0,5.0,120,4.0,3.0,3.0,17.0,1.0,6,29,5.0,42,6,17.0,18,12,4.0,,15.0,28,8.0,3.0,13.0,3.0,6.0,5.0,7,25,3.0,4.0,15,,120,5.0,9.0,,12,1.0,1.0,12.0,1.0,4.0,43,11.0,6.0,12.0,4.0,63,,6.0,7,2.0,,1.0,10.0,1.0,7,19,120,5.0,6.0,9.0,86,102,3.0,7,1.0,64,30,24.0,7,1.0,94,62,1.0,23,4.0,4.0,1.0,4.0,3.0,5,3.0,41.0,21,4.0,14,8,4,7.0,17.0,4.0,1.0,3,14.0,5.0,35,11.0,4.0,5.0,1.0,2.0,5,3.0,6,14,120,4.0,5.0,2.0,32,2.0,3.0,,,73,4.0,2.0,30.0,75,,,10,6,6,9.0,40,6.0,13.0,2.0,13.0,12.0,6.0,3.0,19,,120,2.0,5.0,1.0,79,5.0,17.0,20.0,8.0,2.0,2.0,11,5.0,3.0,,11,,4.0,,10,11.0,70,7,1.0,2.0,11,4.0,51,8,3.0,15,6.0,5.0,2.0,69,35.0,1.0
2017-01-22,7,16,9.0,,3.0,6.0,13.0,1.0,6.0,,1.0,2.0,4.0,7.0,5.0,26,2.0,,21.0,24.0,5,8.0,5.0,1.0,2.0,10.0,6.0,17,3.0,31.0,,46,7.0,42,8.0,8.0,11.0,,2.0,7.0,19.0,4.0,7.0,1.0,,14.0,12.0,5.0,,4.0,7.0,,78,5.0,,15,120,,,15,14,2.0,120,9.0,115,5,27,16,1.0,66,20.0,120,9,8,11,1.0,,18.0,3.0,9.0,2.0,3.0,,3,27,2.0,1.0,1.0,6,3.0,4.0,2,15,1.0,,4.0,4.0,,6,1.0,28,26,3.0,5.0,5.0,3.0,2.0,120,,4.0,73,3.0,1.0,2.0,,4.0,4,3.0,3,4.0,9,1.0,,4.0,2.0,120,9.0,6.0,14,,,13.0,69,5.0,5.0,4.0,,1.0,11.0,3.0,10.0,1.0,3.0,4.0,120,4,9.0,5.0,1.0,5,4.0,65,7.0,,29.0,3.0,42,,3.0,28.0,67,120,4.0,120,1.0,4.0,7.0,2.0,14,27,17.0,4.0,12.0,44,,1.0,2,,2.0,3.0,19.0,2.0,1.0,9,2.0,,7.0,,6.0,2.0,,,31,32.0,,2.0,32,38,19,1.0,120,1.0,6.0,18,120,5.0,,,2.0,45,3.0,3.0,24,3.0,2,19.0,10,23,13,42,,2.0,7.0,20.0,2.0,,,1.0,4.0,8.0,3.0,4,71,6,,6.0,16.0,35,18,,23,5,2,2.0,2.0,1.0,,1,7.0,,7.0,8.0,6.0,4,3.0,95,27,3.0,15,8.0,22.0,,120,4.0,1.0,2.0,2.0,17,19,1.0,12.0,3.0,13.0,,10.0,17.0,4.0,3.0,15.0,,7,2.0,1.0,1.0,9.0,84,17.0,,,17,18,10.0,3.0,,46,1.0,11,110,1.0,106,2.0,1.0,120,3.0,5,51,6.0,5,17,6.0,,,18.0,,4.0,26,1.0,70,,4.0,1.0,2.0,22,,12.0,21,59,1.0,52,,2.0,120,2.0,2.0,6.0,21.0,1.0,4,7,1.0,40,3,1.0,25,9,,6.0,4.0,18,7.0,,14.0,6.0,4.0,1.0,11,28,,,4,5.0,120,1.0,7.0,5.0,7,,,12.0,3.0,1.0,21,2.0,3.0,21.0,,120,1.0,7.0,8,,1.0,2.0,3.0,1.0,12,12,120,4.0,9.0,10.0,120,105,,12,2.0,36,11,4.0,2,1.0,71,101,11.0,25,14.0,3.0,,,1.0,7,4.0,24.0,3,2.0,26,11,8,8.0,9.0,,1.0,37,29.0,8.0,36,13.0,3.0,,2.0,1.0,5,5.0,5,9,120,4.0,4.0,,10,1.0,7.0,2.0,1.0,46,4.0,1.0,33.0,43,8.0,,22,41,7,8.0,35,2.0,5.0,2.0,7.0,8.0,,5.0,8,6.0,120,6.0,1.0,2.0,60,2.0,,16.0,1.0,,,16,2.0,5.0,,6,,21.0,,5,17.0,120,8,,6.0,13,1.0,32,23,9.0,8,8.0,1.0,1.0,69,25.0,5.0
2017-01-23,65,34,9.0,,14.0,12.0,13.0,11.0,7.0,,6.0,6.0,23.0,14.0,40.0,76,6.0,27.0,17.0,80.0,17,9.0,12.0,8.0,12.0,13.0,4.0,26,6.0,120.0,9.0,92,6.0,14,15.0,16.0,1.0,11.0,7.0,50.0,14.0,14.0,11.0,11.0,13.0,11.0,24.0,15.0,12.0,11.0,5.0,2.0,112,15.0,1.0,17,120,6.0,1.0,61,44,15.0,120,16.0,120,4,49,56,15.0,120,64.0,119,18,14,84,1.0,7.0,24.0,10.0,17.0,12.0,12.0,3.0,50,45,3.0,8.0,35.0,21,15.0,33.0,34,12,3.0,7.0,10.0,4.0,1.0,33,7.0,120,29,16.0,5.0,7.0,3.0,18.0,120,8.0,34.0,76,18.0,3.0,14.0,1.0,2.0,9,81.0,18,21.0,11,4.0,4.0,8.0,23.0,120,5.0,25.0,33,24.0,14.0,15.0,120,14.0,25.0,6.0,3.0,4.0,26.0,17.0,9.0,3.0,7.0,13.0,120,17,11.0,9.0,17.0,71,5.0,116,13.0,4.0,50.0,14.0,58,2.0,3.0,45.0,96,120,13.0,120,11.0,13.0,14.0,4.0,34,30,32.0,40.0,21.0,114,2.0,2.0,11,9.0,8.0,6.0,11.0,3.0,22.0,17,17.0,5.0,36.0,29.0,14.0,11.0,22.0,5.0,71,38.0,5.0,16.0,48,95,87,8.0,120,4.0,7.0,18,120,11.0,38.0,,12.0,26,24.0,26.0,48,3.0,10,19.0,31,120,21,120,5.0,10.0,6.0,23.0,11.0,1.0,2.0,15.0,1.0,5.0,13.0,14,120,21,8.0,12.0,21.0,71,115,10.0,103,18,6,12.0,17.0,,6.0,26,12.0,,12.0,18.0,41.0,17,8.0,119,54,39.0,9,9.0,13.0,18.0,95,30.0,6.0,3.0,10.0,43,54,,4.0,25.0,7.0,12.0,11.0,18.0,6.0,6.0,8.0,1.0,10,6.0,8.0,11.0,8.0,120,28.0,28.0,7.0,30,59,3.0,10.0,14.0,120,9.0,39,120,6.0,120,7.0,14.0,120,17.0,19,105,6.0,9,42,11.0,,2.0,6.0,9.0,14.0,80,22.0,120,19.0,2.0,12.0,9.0,82,2.0,10.0,54,120,13.0,33,6.0,11.0,120,31.0,6.0,8.0,3.0,15.0,15,45,6.0,41,8,19.0,46,29,,14.0,16.0,49,13.0,26.0,20.0,5.0,6.0,14.0,6,85,6.0,13.0,11,5.0,120,12.0,13.0,12.0,23,4.0,2.0,13.0,3.0,5.0,58,13.0,5.0,11.0,9.0,120,4.0,17.0,15,6.0,4.0,3.0,9.0,7.0,8,56,120,1.0,17.0,11.0,113,120,5.0,10,4.0,94,34,25.0,6,3.0,122,120,4.0,32,13.0,5.0,1.0,8.0,11.0,2,19.0,24.0,24,6.0,37,8,11,53.0,5.0,14.0,7.0,23,70.0,54.0,120,13.0,7.0,4.0,2.0,8.0,35,13.0,30,11,120,8.0,19.0,3.0,26,2.0,10.0,5.0,1.0,68,9.0,,49.0,85,14.0,,50,118,39,116.0,47,6.0,12.0,4.0,7.0,19.0,21.0,14.0,22,10.0,120,2.0,26.0,7.0,120,16.0,20.0,25.0,11.0,33.0,4.0,10,7.0,3.0,,16,,19.0,7.0,27,24.0,120,30,9.0,3.0,56,4.0,64,19,8.0,11,22.0,4.0,8.0,120,24.0,13.0
2017-01-24,23,78,20.0,,13.0,14.0,7.0,29.0,7.0,,5.0,3.0,113.0,18.0,94.0,52,9.0,56.0,22.0,120.0,17,27.0,9.0,11.0,13.0,7.0,8.0,29,11.0,105.0,9.0,79,4.0,47,4.0,10.0,2.0,8.0,8.0,18.0,10.0,11.0,4.0,10.0,19.0,22.0,11.0,16.0,10.0,17.0,7.0,5.0,120,13.0,15.0,27,120,4.0,4.0,120,41,10.0,120,11.0,120,12,35,56,2.0,120,28.0,120,24,51,42,,10.0,29.0,37.0,12.0,6.0,6.0,4.0,40,35,3.0,1.0,21.0,25,10.0,22.0,26,16,6.0,5.0,6.0,13.0,1.0,89,24.0,56,29,17.0,9.0,3.0,4.0,4.0,120,4.0,15.0,101,20.0,2.0,27.0,7.0,7.0,19,110.0,17,12.0,6,7.0,10.0,6.0,11.0,120,10.0,10.0,35,6.0,2.0,12.0,120,10.0,17.0,6.0,6.0,4.0,79.0,12.0,15.0,4.0,26.0,2.0,120,19,10.0,12.0,35.0,72,4.0,120,11.0,8.0,11.0,17.0,108,4.0,3.0,29.0,120,120,5.0,120,9.0,16.0,10.0,1.0,38,40,120.0,20.0,36.0,120,2.0,6.0,9,6.0,13.0,5.0,15.0,27.0,27.0,11,22.0,17.0,27.0,8.0,44.0,12.0,17.0,3.0,50,28.0,8.0,6.0,53,120,54,1.0,120,7.0,15.0,18,120,16.0,11.0,,3.0,44,10.0,12.0,65,2.0,22,97.0,22,84,23,90,7.0,10.0,8.0,8.0,6.0,3.0,4.0,5.0,5.0,6.0,6.0,27,113,22,9.0,27.0,25.0,69,120,8.0,96,33,23,12.0,99.0,,3.0,19,25.0,,22.0,18.0,19.0,32,1.0,120,55,19.0,8,8.0,10.0,14.0,71,38.0,11.0,6.0,10.0,47,36,15.0,12.0,22.0,17.0,9.0,12.0,26.0,18.0,11.0,23.0,1.0,11,5.0,23.0,8.0,13.0,120,120.0,57.0,11.0,28,42,8.0,10.0,8.0,120,5.0,44,118,11.0,120,10.0,5.0,120,16.0,31,115,3.0,12,42,8.0,1.0,2.0,4.0,4.0,9.0,101,32.0,120,12.0,6.0,22.0,6.0,120,11.0,17.0,59,120,12.0,50,35.0,7.0,120,82.0,14.0,4.0,26.0,14.0,18,39,5.0,24,17,24.0,52,39,4.0,16.0,42.0,31,12.0,19.0,26.0,7.0,11.0,13.0,20,59,13.0,10.0,15,9.0,120,23.0,4.0,16.0,17,6.0,8.0,9.0,8.0,14.0,67,22.0,6.0,15.0,10.0,120,25.0,60.0,18,2.0,6.0,5.0,15.0,6.0,12,43,120,3.0,13.0,75.0,77,113,13.0,23,7.0,103,62,12.0,9,6.0,120,116,5.0,44,7.0,7.0,9.0,7.0,14.0,9,16.0,21.0,27,9.0,56,24,11,51.0,18.0,4.0,22.0,21,52.0,25.0,120,12.0,7.0,1.0,9.0,8.0,16,32.0,102,47,120,2.0,15.0,6.0,25,6.0,5.0,13.0,6.0,66,6.0,3.0,97.0,64,22.0,,120,39,18,117.0,50,7.0,22.0,6.0,5.0,25.0,7.0,15.0,17,15.0,120,4.0,22.0,6.0,120,6.0,5.0,23.0,6.0,9.0,7.0,12,10.0,16.0,,31,,9.0,6.0,6,8.0,120,41,8.0,10.0,40,5.0,109,11,10.0,11,22.0,5.0,12.0,120,44.0,12.0
2017-01-25,39,65,13.0,,39.0,8.0,25.0,6.0,5.0,,8.0,10.0,54.0,29.0,120.0,67,26.0,44.0,19.0,72.0,12,9.0,14.0,7.0,9.0,12.0,31.0,18,7.0,66.0,3.0,76,7.0,77,7.0,11.0,7.0,2.0,7.0,8.0,8.0,89.0,21.0,7.0,21.0,11.0,15.0,10.0,4.0,17.0,8.0,5.0,120,17.0,30.0,23,120,7.0,14.0,120,66,23.0,120,11.0,120,6,65,49,1.0,120,25.0,120,18,30,36,8.0,34.0,23.0,32.0,23.0,35.0,6.0,5.0,31,42,6.0,12.0,7.0,23,10.0,8.0,93,34,2.0,7.0,9.0,43.0,2.0,29,20.0,120,25,13.0,14.0,8.0,8.0,6.0,120,2.0,18.0,96,6.0,4.0,11.0,15.0,7.0,26,53.0,32,11.0,34,8.0,3.0,22.0,8.0,120,4.0,23.0,18,15.0,2.0,16.0,120,23.0,12.0,5.0,5.0,17.0,34.0,7.0,22.0,8.0,36.0,17.0,120,65,36.0,10.0,25.0,29,11.0,120,63.0,3.0,26.0,32.0,120,9.0,7.0,26.0,111,120,7.0,120,8.0,9.0,16.0,1.0,120,45,45.0,28.0,120.0,120,13.0,3.0,13,14.0,16.0,13.0,10.0,28.0,23.0,24,13.0,28.0,35.0,5.0,28.0,11.0,6.0,12.0,66,41.0,13.0,15.0,53,120,54,15.0,120,7.0,13.0,26,120,6.0,24.0,,8.0,71,5.0,17.0,50,4.0,34,54.0,21,65,61,63,2.0,8.0,6.0,22.0,3.0,3.0,4.0,11.0,11.0,11.0,4.0,29,120,25,4.0,38.0,13.0,104,34,5.0,88,38,15,15.0,98.0,,22.0,38,14.0,,120.0,69.0,18.0,37,4.0,120,72,16.0,13,9.0,15.0,15.0,119,18.0,2.0,4.0,9.0,75,48,6.0,10.0,14.0,9.0,8.0,20.0,56.0,69.0,5.0,67.0,3.0,14,8.0,20.0,11.0,5.0,120,120.0,13.0,20.0,38,49,7.0,5.0,11.0,120,3.0,25,120,58.0,120,4.0,9.0,120,11.0,23,120,4.0,29,48,11.0,,2.0,6.0,4.0,7.0,120,61.0,120,11.0,8.0,107.0,34.0,94,9.0,12.0,53,120,11.0,61,46.0,5.0,120,19.0,6.0,7.0,13.0,10.0,22,26,8.0,48,16,25.0,55,35,7.0,20.0,80.0,32,14.0,20.0,16.0,14.0,3.0,13.0,15,60,14.0,5.0,12,4.0,120,69.0,7.0,74.0,15,4.0,7.0,24.0,5.0,71.0,66,20.0,8.0,10.0,20.0,120,16.0,58.0,34,2.0,7.0,20.0,18.0,13.0,27,39,120,9.0,13.0,35.0,99,116,12.0,16,12.0,102,40,18.0,23,5.0,120,113,5.0,39,7.0,5.0,2.0,6.0,15.0,14,14.0,33.0,64,10.0,58,16,30,28.0,6.0,13.0,16.0,18,21.0,11.0,120,23.0,7.0,7.0,9.0,10.0,15,86.0,93,45,120,11.0,23.0,4.0,35,17.0,16.0,5.0,5.0,58,10.0,,51.0,38,77.0,,114,32,23,24.0,50,17.0,17.0,2.0,21.0,22.0,5.0,72.0,22,17.0,120,10.0,76.0,12.0,120,5.0,13.0,93.0,9.0,46.0,7.0,26,14.0,10.0,,22,,7.0,7.0,12,11.0,120,36,7.0,5.0,47,6.0,120,21,21.0,12,37.0,3.0,4.0,110,23.0,12.0
2017-01-26,42,57,22.0,,33.0,10.0,25.0,7.0,16.0,,7.0,31.0,29.0,12.0,120.0,120,11.0,25.0,15.0,39.0,17,27.0,14.0,1.0,6.0,8.0,120.0,24,16.0,42.0,12.0,87,10.0,47,6.0,15.0,4.0,2.0,15.0,11.0,20.0,74.0,8.0,11.0,26.0,26.0,12.0,18.0,2.0,7.0,7.0,12.0,120,9.0,14.0,18,120,7.0,1.0,88,45,7.0,120,13.0,120,4,115,82,8.0,120,11.0,117,29,22,37,6.0,21.0,12.0,6.0,37.0,5.0,7.0,9.0,30,46,1.0,4.0,9.0,26,5.0,29.0,101,120,1.0,12.0,21.0,15.0,2.0,21,9.0,109,27,14.0,108.0,2.0,14.0,5.0,120,1.0,13.0,119,13.0,6.0,103.0,52.0,5.0,50,20.0,17,8.0,68,6.0,1.0,47.0,120.0,120,3.0,11.0,20,7.0,12.0,17.0,120,86.0,7.0,10.0,,26.0,24.0,9.0,14.0,3.0,15.0,16.0,119,61,19.0,14.0,9.0,21,76.0,120,34.0,9.0,47.0,29.0,120,3.0,6.0,31.0,98,120,27.0,120,7.0,10.0,10.0,24.0,66,24,43.0,22.0,65.0,120,32.0,3.0,13,8.0,12.0,9.0,8.0,97.0,15.0,19,16.0,12.0,25.0,7.0,23.0,7.0,5.0,8.0,113,39.0,12.0,31.0,53,118,36,4.0,120,13.0,7.0,44,120,7.0,16.0,,4.0,59,12.0,11.0,28,10.0,27,34.0,40,54,44,41,11.0,12.0,9.0,14.0,7.0,1.0,3.0,5.0,6.0,5.0,9.0,16,120,34,6.0,16.0,21.0,120,12,1.0,82,31,14,8.0,27.0,,16.0,41,20.0,,70.0,120.0,13.0,21,6.0,120,45,9.0,20,15.0,8.0,29.0,114,13.0,6.0,14.0,22.0,120,120,2.0,16.0,17.0,8.0,8.0,8.0,120.0,18.0,5.0,23.0,,65,7.0,8.0,1.0,10.0,120,114.0,17.0,16.0,30,64,6.0,8.0,9.0,113,7.0,29,120,42.0,120,5.0,6.0,118,12.0,26,120,10.0,50,55,13.0,2.0,7.0,7.0,5.0,4.0,120,40.0,120,15.0,10.0,30.0,30.0,71,5.0,15.0,44,120,9.0,64,9.0,15.0,120,14.0,12.0,13.0,37.0,7.0,22,33,3.0,53,14,37.0,49,29,3.0,12.0,35.0,32,8.0,29.0,17.0,55.0,3.0,11.0,16,47,7.0,5.0,9,1.0,120,62.0,6.0,23.0,13,2.0,7.0,17.0,1.0,28.0,120,12.0,61.0,5.0,40.0,120,24.0,23.0,16,5.0,6.0,6.0,8.0,8.0,7,42,120,8.0,5.0,27.0,84,120,8.0,19,2.0,86,34,62.0,55,6.0,115,120,4.0,32,11.0,3.0,4.0,7.0,12.0,22,12.0,9.0,120,9.0,39,23,14,11.0,3.0,2.0,11.0,32,41.0,11.0,120,7.0,4.0,4.0,8.0,6.0,23,83.0,47,54,120,13.0,14.0,6.0,28,10.0,22.0,29.0,5.0,45,10.0,2.0,37.0,26,45.0,,55,22,34,18.0,53,41.0,44.0,4.0,17.0,25.0,9.0,17.0,7,13.0,120,21.0,61.0,7.0,107,4.0,15.0,120.0,10.0,60.0,9.0,17,9.0,6.0,,17,,30.0,4.0,8,11.0,103,14,8.0,4.0,17,6.0,120,13,29.0,15,31.0,4.0,2.0,111,27.0,21.0
2017-01-27,45,77,27.0,,14.0,15.0,10.0,10.0,11.0,,8.0,22.0,19.0,21.0,65.0,118,8.0,26.0,6.0,37.0,18,6.0,10.0,9.0,4.0,8.0,48.0,23,12.0,47.0,5.0,88,5.0,31,5.0,14.0,3.0,15.0,14.0,7.0,20.0,40.0,7.0,7.0,15.0,31.0,6.0,20.0,7.0,2.0,7.0,10.0,86,16.0,1.0,21,120,7.0,7.0,83,39,6.0,119,12.0,113,11,120,85,31.0,120,27.0,120,19,58,41,2.0,9.0,120.0,10.0,14.0,4.0,10.0,14.0,25,33,9.0,9.0,8.0,27,11.0,10.0,42,28,3.0,10.0,6.0,11.0,1.0,21,17.0,91,26,48.0,36.0,2.0,6.0,3.0,120,3.0,9.0,114,1.0,10.0,54.0,40.0,10.0,14,24.0,10,5.0,16,3.0,6.0,23.0,83.0,119,9.0,15.0,40,10.0,6.0,11.0,120,46.0,4.0,6.0,4.0,5.0,15.0,5.0,22.0,5.0,12.0,16.0,120,22,16.0,6.0,11.0,23,110.0,120,21.0,1.0,25.0,90.0,120,8.0,6.0,47.0,82,120,89.0,120,18.0,8.0,8.0,5.0,42,25,37.0,25.0,32.0,118,12.0,3.0,13,13.0,9.0,6.0,5.0,49.0,6.0,15,9.0,10.0,12.0,3.0,15.0,7.0,2.0,7.0,120,23.0,8.0,29.0,68,79,36,23.0,120,18.0,7.0,21,120,6.0,12.0,,5.0,49,13.0,5.0,42,1.0,13,26.0,112,45,69,13,9.0,5.0,2.0,14.0,6.0,2.0,8.0,9.0,1.0,2.0,17.0,14,120,45,8.0,3.0,21.0,120,31,4.0,89,42,12,9.0,17.0,,32.0,10,6.0,,30.0,85.0,16.0,16,5.0,118,37,8.0,10,7.0,5.0,28.0,87,15.0,5.0,12.0,16.0,52,120,6.0,7.0,34.0,5.0,5.0,8.0,96.0,10.0,4.0,20.0,,15,12.0,15.0,5.0,8.0,120,70.0,11.0,11.0,39,25,10.0,3.0,13.0,105,2.0,25,120,17.0,120,4.0,3.0,120,3.0,20,118,11.0,120,90,11.0,13.0,,1.0,,5.0,120,31.0,120,3.0,3.0,42.0,12.0,120,5.0,14.0,39,120,4.0,62,26.0,9.0,120,19.0,7.0,4.0,19.0,14.0,25,26,2.0,46,7,20.0,120,34,6.0,13.0,26.0,46,7.0,18.0,15.0,16.0,3.0,8.0,27,51,7.0,9.0,13,3.0,120,27.0,11.0,12.0,32,2.0,4.0,16.0,,18.0,108,21.0,78.0,6.0,13.0,120,27.0,26.0,33,6.0,5.0,4.0,8.0,10.0,14,75,120,3.0,12.0,12.0,120,120,5.0,9,8.0,109,40,27.0,23,5.0,120,104,12.0,13,18.0,3.0,3.0,3.0,4.0,46,11.0,9.0,120,1.0,34,28,16,22.0,5.0,3.0,9.0,16,29.0,11.0,104,11.0,6.0,7.0,6.0,4.0,9,31.0,61,29,120,7.0,9.0,20.0,18,4.0,11.0,44.0,4.0,40,4.0,,16.0,24,19.0,,44,31,19,26.0,46,8.0,19.0,,8.0,22.0,11.0,24.0,10,17.0,120,10.0,33.0,13.0,100,2.0,14.0,45.0,5.0,30.0,9.0,18,6.0,2.0,,33,,12.0,7.0,6,14.0,120,17,8.0,3.0,44,9.0,120,42,22.0,19,13.0,2.0,3.0,118,12.0,50.0
2017-01-28,15,29,4.0,,13.0,3.0,2.0,1.0,6.0,,4.0,8.0,11.0,14.0,6.0,25,2.0,5.0,1.0,26.0,11,6.0,1.0,1.0,7.0,2.0,18.0,7,6.0,6.0,3.0,33,4.0,19,9.0,4.0,4.0,,14.0,4.0,3.0,6.0,5.0,6.0,4.0,16.0,7.0,7.0,2.0,3.0,4.0,14.0,53,4.0,1.0,6,120,6.0,5.0,34,25,6.0,120,8.0,114,2,38,32,5.0,115,2.0,120,26,18,21,,,21.0,,8.0,5.0,3.0,8.0,7,15,1.0,,3.0,7,5.0,5.0,23,11,1.0,1.0,5.0,2.0,,7,6.0,25,15,3.0,8.0,2.0,3.0,6.0,120,5.0,19.0,56,,5.0,16.0,6.0,2.0,5,2.0,3,5.0,10,3.0,3.0,7.0,20.0,120,10.0,4.0,20,5.0,3.0,6.0,105,11.0,1.0,4.0,2.0,1.0,5.0,3.0,2.0,2.0,7.0,15.0,120,10,6.0,4.0,5.0,11,8.0,76,15.0,1.0,13.0,13.0,84,3.0,3.0,26.0,62,120,10.0,120,10.0,3.0,4.0,2.0,20,4,13.0,5.0,20.0,56,3.0,,5,4.0,3.0,3.0,2.0,14.0,9.0,4,1.0,6.0,6.0,3.0,13.0,,2.0,3.0,67,4.0,5.0,9.0,36,30,10,8.0,120,11.0,3.0,21,120,5.0,6.0,,4.0,17,7.0,2.0,21,6.0,3,39.0,14,28,14,20,2.0,,2.0,7.0,1.0,,1.0,3.0,4.0,1.0,8.0,6,69,19,4.0,2.0,10.0,71,6,,43,23,9,2.0,16.0,,2.0,3,6.0,,13.0,23.0,5.0,19,6.0,78,24,,2,9.0,7.0,4.0,30,9.0,2.0,1.0,1.0,11,29,3.0,1.0,40.0,3.0,4.0,8.0,31.0,2.0,3.0,8.0,,8,7.0,10.0,2.0,1.0,48,26.0,6.0,2.0,11,28,5.0,3.0,4.0,55,4.0,20,62,6.0,99,2.0,,120,2.0,7,42,3.0,32,26,6.0,3.0,4.0,1.0,1.0,3.0,78,8.0,104,3.0,,7.0,1.0,28,3.0,12.0,32,109,3.0,26,4.0,6.0,109,6.0,,3.0,7.0,4.0,10,19,4.0,30,5,7.0,28,24,,6.0,8.0,24,4.0,2.0,8.0,9.0,4.0,8.0,5,14,2.0,3.0,3,,120,5.0,6.0,3.0,10,4.0,4.0,6.0,1.0,5.0,39,6.0,12.0,,3.0,70,1.0,20.0,3,,1.0,3.0,5.0,2.0,5,12,120,2.0,4.0,8.0,46,38,5.0,7,4.0,52,27,13.0,6,6.0,70,60,10.0,5,4.0,1.0,4.0,7.0,4.0,2,,3.0,36,4.0,20,10,10,16.0,5.0,,1.0,11,23.0,4.0,65,7.0,1.0,,1.0,3.0,8,7.0,33,20,120,2.0,2.0,3.0,11,9.0,18.0,7.0,3.0,30,6.0,,9.0,11,4.0,,7,13,13,5.0,44,5.0,13.0,3.0,,4.0,4.0,7.0,4,6.0,120,1.0,8.0,5.0,44,,11.0,20.0,3.0,5.0,6.0,8,3.0,1.0,,15,,7.0,1.0,5,10.0,80,3,2.0,,18,2.0,67,7,29.0,19,24.0,,1.0,39,20.0,13.0
2017-01-29,12,18,5.0,,4.0,6.0,,1.0,4.0,,3.0,1.0,2.0,5.0,10.0,25,7.0,7.0,3.0,17.0,5,2.0,4.0,4.0,2.0,6.0,6.0,12,6.0,1.0,3.0,47,3.0,13,8.0,7.0,3.0,3.0,4.0,12.0,3.0,2.0,1.0,2.0,1.0,2.0,10.0,5.0,,3.0,3.0,6.0,39,2.0,,4,114,3.0,,26,22,3.0,119,6.0,120,2,28,48,3.0,103,1.0,120,8,23,32,,2.0,11.0,3.0,14.0,2.0,,17.0,3,10,1.0,1.0,1.0,4,5.0,9.0,29,13,3.0,,,3.0,,12,,32,8,4.0,4.0,,,6.0,120,,16.0,82,,,4.0,3.0,6.0,3,6.0,2,4.0,14,6.0,,,4.0,120,3.0,2.0,8,,2.0,17.0,105,13.0,1.0,1.0,,,9.0,2.0,8.0,2.0,9.0,9.0,120,5,2.0,1.0,3.0,15,9.0,82,9.0,4.0,3.0,10.0,57,1.0,,10.0,59,120,6.0,120,4.0,5.0,,,8,7,14.0,3.0,25.0,47,1.0,,2,7.0,3.0,3.0,1.0,1.0,2.0,2,1.0,1.0,2.0,2.0,3.0,3.0,5.0,,39,27.0,2.0,3.0,28,43,18,6.0,120,3.0,1.0,13,120,,4.0,,,28,2.0,1.0,16,1.0,19,7.0,4,14,18,8,2.0,8.0,,3.0,3.0,1.0,,,8.0,1.0,3.0,7,56,5,,3.0,,54,2,,18,15,7,,2.0,,3.0,4,6.0,,10.0,25.0,2.0,9,1.0,75,18,5.0,8,5.0,2.0,1.0,64,6.0,2.0,,4.0,22,16,1.0,3.0,36.0,,2.0,6.0,26.0,,2.0,7.0,,2,3.0,8.0,1.0,8.0,43,15.0,7.0,1.0,15,30,8.0,2.0,7.0,97,,16,86,7.0,77,3.0,,120,,5,29,2.0,12,22,6.0,,3.0,1.0,,,44,3.0,92,,1.0,3.0,1.0,25,,3.0,14,91,,9,6.0,5.0,109,6.0,,3.0,6.0,10.0,8,23,,42,3,3.0,19,20,2.0,4.0,7.0,13,3.0,4.0,9.0,,2.0,2.0,7,24,5.0,,10,,120,1.0,1.0,8.0,2,1.0,,7.0,1.0,5.0,22,4.0,9.0,,5.0,75,2.0,10.0,2,,1.0,1.0,2.0,,12,7,120,2.0,2.0,2.0,21,42,1.0,7,3.0,43,4,2.0,11,4.0,57,62,2.0,13,11.0,,,,1.0,2,,11.0,15,,12,20,16,11.0,1.0,1.0,4.0,24,13.0,12.0,25,7.0,1.0,2.0,7.0,1.0,9,1.0,13,21,120,2.0,10.0,5.0,20,2.0,4.0,2.0,1.0,29,14.0,3.0,15.0,14,2.0,,11,10,7,14.0,43,2.0,6.0,1.0,5.0,1.0,6.0,6.0,12,11.0,120,2.0,6.0,8.0,55,1.0,,8.0,2.0,,5.0,11,6.0,4.0,,13,,17.0,2.0,7,,78,6,2.0,2.0,19,4.0,47,8,19.0,17,1.0,,5.0,45,16.0,16.0
2017-01-31,22,63,18.0,,21.0,6.0,17.0,4.0,8.0,,3.0,5.0,14.0,59.0,38.0,120,49.0,10.0,2.0,31.0,17,9.0,11.0,4.0,6.0,10.0,19.0,26,10.0,40.0,1.0,120,4.0,20,35.0,91.0,16.0,12.0,23.0,11.0,6.0,9.0,1.0,10.0,12.0,76.0,23.0,13.0,23.0,12.0,90.0,2.0,119,14.0,9.0,41,120,3.0,9.0,72,44,10.0,120,21.0,120,9,106,116,6.0,120,4.0,112,20,120,35,2.0,5.0,99.0,2.0,28.0,13.0,6.0,29.0,47,96,2.0,4.0,11.0,29,5.0,11.0,24,16,3.0,8.0,9.0,13.0,,8,60.0,63,12,71.0,25.0,9.0,6.0,3.0,120,3.0,21.0,119,1.0,3.0,25.0,21.0,13.0,15,4.0,5,7.0,20,5.0,18.0,5.0,22.0,120,5.0,27.0,30,11.0,5.0,15.0,120,8.0,13.0,12.0,6.0,10.0,13.0,5.0,36.0,8.0,12.0,12.0,120,28,18.0,9.0,10.0,29,36.0,120,23.0,7.0,29.0,8.0,120,9.0,3.0,17.0,86,120,25.0,120,62.0,28.0,4.0,2.0,59,28,29.0,10.0,19.0,95,7.0,1.0,70,19.0,6.0,24.0,11.0,22.0,10.0,20,9.0,3.0,6.0,,8.0,14.0,9.0,7.0,61,32.0,3.0,5.0,95,81,74,16.0,120,4.0,17.0,24,120,,11.0,,37.0,42,8.0,11.0,36,,9,25.0,41,28,37,41,7.0,6.0,4.0,10.0,48.0,,4.0,8.0,3.0,10.0,20.0,13,102,24,35.0,8.0,19.0,120,43,20.0,120,45,9,5.0,16.0,,5.0,20,16.0,,6.0,15.0,5.0,19,8.0,115,120,5.0,12,6.0,10.0,15.0,84,12.0,5.0,3.0,8.0,31,37,6.0,10.0,47.0,17.0,1.0,17.0,36.0,13.0,10.0,9.0,,17,5.0,66.0,2.0,9.0,107,53.0,5.0,19.0,19,120,57.0,8.0,38.0,119,3.0,25,105,5.0,120,7.0,5.0,120,5.0,23,96,10.0,37,104,9.0,7.0,4.0,11.0,2.0,10.0,120,7.0,120,13.0,27.0,32.0,8.0,52,2.0,13.0,37,120,9.0,90,22.0,7.0,120,7.0,4.0,6.0,6.0,119.0,18,72,3.0,33,3,24.0,39,120,28.0,34.0,23.0,18,40.0,16.0,39.0,19.0,4.0,9.0,51,49,14.0,4.0,20,,120,10.0,7.0,6.0,12,7.0,2.0,12.0,9.0,15.0,95,8.0,7.0,12.0,10.0,120,13.0,21.0,85,6.0,3.0,1.0,4.0,2.0,15,68,120,2.0,5.0,13.0,55,102,4.0,21,3.0,120,14,16.0,16,4.0,120,117,1.0,16,17.0,10.0,4.0,8.0,9.0,10,4.0,6.0,43,5.0,113,35,26,120.0,9.0,6.0,24.0,27,18.0,13.0,110,16.0,5.0,6.0,9.0,62.0,21,29.0,43,37,119,7.0,10.0,7.0,46,4.0,6.0,8.0,1.0,55,6.0,3.0,13.0,26,8.0,,35,18,27,110.0,65,10.0,34.0,8.0,28.0,13.0,4.0,12.0,15,58.0,120,12.0,15.0,12.0,70,4.0,11.0,59.0,4.0,14.0,35.0,30,14.0,7.0,,47,,32.0,11.0,7,24.0,120,20,19.0,6.0,120,36.0,79,41,27.0,22,10.0,4.0,1.0,76,20.0,19.0
2017-02-01,37,67,26.0,,24.0,3.0,12.0,9.0,9.0,,6.0,10.0,15.0,61.0,27.0,107,12.0,6.0,95.0,17.0,24,3.0,13.0,7.0,5.0,9.0,12.0,25,11.0,22.0,5.0,102,1.0,17,88.0,32.0,42.0,6.0,8.0,20.0,12.0,3.0,4.0,8.0,16.0,69.0,31.0,14.0,4.0,6.0,50.0,20.0,110,73.0,10.0,45,120,4.0,11.0,54,38,15.0,118,29.0,120,10,54,114,14.0,120,22.0,120,29,110,30,4.0,6.0,120.0,7.0,24.0,23.0,2.0,21.0,30,50,9.0,1.0,12.0,29,5.0,14.0,22,15,7.0,22.0,15.0,4.0,3.0,13,104.0,65,18,33.0,27.0,6.0,4.0,3.0,120,,2.0,120,3.0,1.0,8.0,9.0,9.0,20,6.0,16,8.0,6,9.0,34.0,5.0,60.0,120,53.0,85.0,21,2.0,14.0,16.0,105,15.0,20.0,9.0,2.0,3.0,16.0,8.0,103.0,7.0,15.0,9.0,120,11,44.0,4.0,27.0,20,24.0,120,16.0,19.0,44.0,12.0,117,7.0,20.0,17.0,93,120,25.0,120,27.0,9.0,3.0,15.0,58,26,59.0,13.0,22.0,97,1.0,11.0,31,17.0,5.0,10.0,22.0,31.0,15.0,17,10.0,10.0,17.0,7.0,3.0,57.0,8.0,6.0,51,23.0,7.0,28.0,90,51,120,22.0,120,12.0,11.0,15,120,,10.0,,24.0,53,6.0,13.0,27,5.0,23,29.0,37,22,31,47,21.0,39.0,4.0,6.0,50.0,1.0,,10.0,2.0,5.0,26.0,24,120,27,11.0,9.0,24.0,120,17,15.0,80,64,9,8.0,12.0,2.0,,20,25.0,,10.0,21.0,10.0,40,11.0,115,93,37.0,37,5.0,13.0,12.0,46,11.0,5.0,1.0,17.0,48,42,11.0,16.0,120.0,64.0,2.0,16.0,29.0,12.0,7.0,14.0,,9,4.0,52.0,2.0,4.0,90,18.0,7.0,7.0,29,120,27.0,4.0,30.0,76,4.0,23,120,7.0,120,26.0,7.0,122,13.0,22,120,4.0,24,116,14.0,2.0,3.0,36.0,3.0,4.0,120,15.0,120,33.0,18.0,22.0,4.0,48,1.0,13.0,29,120,1.0,86,16.0,5.0,111,8.0,19.0,13.0,11.0,60.0,10,114,7.0,55,6,15.0,43,69,15.0,75.0,13.0,23,34.0,26.0,120.0,16.0,8.0,10.0,45,44,9.0,7.0,13,2.0,120,81.0,14.0,4.0,23,8.0,6.0,28.0,5.0,11.0,62,10.0,12.0,17.0,13.0,120,16.0,21.0,35,,2.0,4.0,13.0,23.0,17,54,120,3.0,12.0,7.0,27,84,16.0,57,3.0,120,26,14.0,12,9.0,119,120,7.0,15,6.0,5.0,7.0,2.0,4.0,7,3.0,16.0,56,10.0,65,17,18,120.0,27.0,4.0,1.0,30,26.0,28.0,120,9.0,5.0,11.0,9.0,12.0,24,25.0,65,39,120,47.0,37.0,2.0,43,6.0,14.0,11.0,2.0,54,53.0,,16.0,18,17.0,,33,28,114,62.0,57,26.0,15.0,,12.0,7.0,3.0,18.0,14,33.0,106,25.0,19.0,5.0,120,7.0,37.0,27.0,8.0,9.0,9.0,19,11.0,7.0,,78,,11.0,80.0,5,12.0,120,21,65.0,31.0,120,29.0,20,65,37.0,15,16.0,13.0,10.0,55,35.0,15.0
2017-02-02,38,120,15.0,,4.0,10.0,13.0,1.0,13.0,,15.0,10.0,6.0,27.0,23.0,47,11.0,29.0,50.0,21.0,10,4.0,11.0,11.0,5.0,4.0,14.0,17,20.0,33.0,5.0,113,5.0,23,17.0,22.0,39.0,5.0,7.0,10.0,44.0,3.0,3.0,6.0,13.0,37.0,80.0,10.0,8.0,3.0,16.0,5.0,115,32.0,13.0,33,120,5.0,7.0,31,27,9.0,120,15.0,120,9,58,76,27.0,120,9.0,120,38,61,59,5.0,18.0,120.0,7.0,12.0,11.0,20.0,12.0,24,61,7.0,6.0,7.0,38,7.0,6.0,32,14,38.0,44.0,14.0,2.0,7.0,19,22.0,73,18,47.0,11.0,3.0,2.0,6.0,120,2.0,3.0,120,2.0,2.0,10.0,44.0,31.0,14,3.0,12,6.0,20,6.0,4.0,5.0,47.0,120,9.0,91.0,20,52.0,16.0,18.0,113,34.0,18.0,7.0,4.0,4.0,8.0,5.0,55.0,4.0,15.0,9.0,119,11,27.0,2.0,24.0,12,22.0,120,7.0,11.0,20.0,22.0,111,47.0,35.0,50.0,120,120,11.0,120,9.0,12.0,8.0,15.0,58,13,25.0,25.0,19.0,92,2.0,14.0,28,63.0,5.0,11.0,16.0,20.0,8.0,9,4.0,3.0,21.0,4.0,7.0,36.0,28.0,6.0,48,38.0,13.0,10.0,120,53,116,51.0,120,9.0,18.0,18,120,2.0,9.0,,14.0,54,2.0,4.0,18,,14,29.0,20,27,97,26,49.0,120.0,29.0,12.0,8.0,1.0,,7.0,7.0,10.0,15.0,43,120,16,10.0,2.0,76.0,120,20,24.0,70,41,11,2.0,19.0,,4.0,53,12.0,,18.0,20.0,9.0,99,2.0,105,48,68.0,29,18.0,9.0,50.0,63,14.0,9.0,,9.0,63,35,5.0,8.0,43.0,111.0,3.0,24.0,35.0,5.0,7.0,12.0,,17,10.0,14.0,5.0,8.0,66,22.0,4.0,19.0,36,68,15.0,7.0,17.0,75,2.0,59,103,7.0,120,9.0,8.0,120,18.0,11,75,17.0,29,120,34.0,3.0,,46.0,5.0,13.0,105,4.0,120,32.0,12.0,15.0,9.0,38,3.0,16.0,27,120,6.0,57,19.0,7.0,3,9.0,11.0,6.0,11.0,74.0,14,59,7.0,48,3,36.0,58,37,5.0,46.0,11.0,114,27.0,13.0,63.0,12.0,5.0,7.0,26,33,19.0,3.0,8,6.0,120,34.0,7.0,15.0,14,1.0,1.0,17.0,37.0,5.0,61,4.0,13.0,12.0,12.0,119,20.0,20.0,22,1.0,5.0,3.0,16.0,11.0,10,54,120,20.0,6.0,5.0,56,120,2.0,11,7.0,120,16,18.0,12,25.0,117,119,5.0,18,8.0,4.0,6.0,,68.0,11,5.0,66.0,26,2.0,120,14,20,104.0,16.0,12.0,3.0,12,13.0,7.0,113,8.0,6.0,5.0,1.0,6.0,61,5.0,113,29,120,10.0,20.0,3.0,100,5.0,15.0,9.0,1.0,45,16.0,1.0,13.0,23,14.0,,18,44,109,49.0,104,67.0,24.0,4.0,8.0,9.0,4.0,17.0,22,11.0,118,5.0,19.0,28.0,109,5.0,16.0,46.0,1.0,13.0,13.0,12,11.0,11.0,,37,,15.0,23.0,14,11.0,120,7,23.0,56.0,120,15.0,108,50,12.0,16,11.0,25.0,8.0,93,20.0,17.0
2017-02-03,44,120,32.0,,10.0,18.0,12.0,12.0,13.0,,35.0,3.0,4.0,19.0,16.0,66,10.0,11.0,15.0,27.0,30,7.0,22.0,9.0,6.0,32.0,9.0,46,32.0,26.0,8.0,111,3.0,48,20.0,23.0,14.0,5.0,8.0,21.0,19.0,27.0,13.0,18.0,12.0,53.0,120.0,13.0,3.0,6.0,14.0,11.0,105,22.0,5.0,29,118,20.0,19.0,74,42,3.0,120,11.0,120,15,57,110,10.0,109,15.0,120,41,96,63,4.0,3.0,120.0,3.0,28.0,7.0,19.0,20.0,12,39,9.0,5.0,11.0,31,10.0,13.0,24,11,24.0,27.0,3.0,4.0,7.0,14,14.0,81,28,30.0,15.0,7.0,5.0,2.0,120,4.0,6.0,120,14.0,2.0,11.0,31.0,18.0,7,1.0,30,15.0,13,16.0,14.0,6.0,21.0,118,10.0,42.0,31,34.0,2.0,16.0,108,23.0,36.0,5.0,4.0,11.0,10.0,8.0,35.0,15.0,15.0,11.0,120,18,12.0,6.0,9.0,26,17.0,120,6.0,8.0,34.0,48.0,110,28.0,32.0,15.0,115,120,23.0,120,17.0,10.0,5.0,6.0,53,33,25.0,7.0,34.0,91,4.0,5.0,13,40.0,4.0,9.0,7.0,4.0,11.0,21,6.0,4.0,20.0,2.0,16.0,27.0,18.0,8.0,80,41.0,9.0,11.0,120,78,75,22.0,120,11.0,12.0,33,120,3.0,14.0,,11.0,49,9.0,5.0,54,1.0,8,22.0,17,27,64,19,41.0,120.0,19.0,16.0,8.0,1.0,7.0,5.0,14.0,3.0,4.0,113,107,21,5.0,6.0,123.0,113,17,26.0,80,42,23,12.0,20.0,,4.0,48,6.0,,12.0,10.0,5.0,55,3.0,116,53,30.0,36,7.0,7.0,52.0,101,5.0,10.0,11.0,11.0,39,23,12.0,11.0,36.0,21.0,14.0,23.0,31.0,8.0,8.0,13.0,,45,3.0,19.0,2.0,7.0,73,26.0,5.0,58.0,47,59,17.0,16.0,7.0,93,5.0,41,118,8.0,120,10.0,4.0,107,9.0,14,111,82.0,29,120,26.0,,1.0,21.0,3.0,14.0,97,13.0,120,11.0,3.0,12.0,3.0,120,6.0,12.0,57,116,4.0,58,31.0,17.0,112,11.0,6.0,2.0,32.0,51.0,13,86,12.0,44,18,39.0,49,47,9.0,30.0,16.0,59,26.0,8.0,39.0,11.0,7.0,8.0,29,48,15.0,4.0,12,5.0,120,17.0,15.0,9.0,17,6.0,5.0,25.0,10.0,8.0,69,29.0,14.0,55.0,9.0,110,17.0,15.0,44,4.0,4.0,1.0,43.0,6.0,12,27,112,8.0,3.0,11.0,39,115,3.0,17,8.0,109,35,19.0,14,26.0,120,116,1.0,42,20.0,8.0,8.0,7.0,120.0,13,4.0,41.0,41,8.0,105,21,21,68.0,9.0,5.0,6.0,41,7.0,13.0,122,16.0,1.0,14.0,3.0,11.0,18,25.0,85,35,120,11.0,10.0,7.0,59,1.0,16.0,1.0,4.0,46,17.0,4.0,32.0,40,15.0,,64,40,49,37.0,56,42.0,14.0,4.0,28.0,15.0,7.0,10.0,19,23.0,120,17.0,24.0,118.0,84,2.0,6.0,28.0,5.0,8.0,12.0,56,15.0,9.0,,38,,37.0,22.0,12,35.0,120,20,20.0,28.0,109,7.0,89,25,22.0,19,38.0,22.0,7.0,59,11.0,23.0
2017-02-04,20,66,4.0,,4.0,2.0,2.0,3.0,4.0,,14.0,7.0,4.0,17.0,7.0,23,13.0,5.0,15.0,17.0,6,5.0,8.0,2.0,1.0,2.0,3.0,16,20.0,14.0,9.0,38,3.0,21,5.0,16.0,2.0,5.0,5.0,3.0,3.0,10.0,2.0,3.0,11.0,2.0,21.0,10.0,3.0,2.0,8.0,1.0,50,10.0,6.0,16,120,7.0,2.0,20,27,8.0,120,6.0,120,4,23,43,3.0,55,10.0,120,19,39,38,3.0,,10.0,,5.0,1.0,1.0,5.0,7,16,1.0,1.0,5.0,9,3.0,6.0,11,9,11.0,12.0,3.0,5.0,,11,24.0,42,5,11.0,5.0,2.0,,3.0,120,6.0,2.0,68,11.0,,5.0,5.0,2.0,6,4.0,21,7.0,11,12.0,11.0,1.0,4.0,120,8.0,28.0,10,7.0,1.0,3.0,47,8.0,11.0,4.0,2.0,1.0,3.0,1.0,13.0,9.0,7.0,7.0,120,4,6.0,12.0,3.0,9,3.0,81,2.0,5.0,4.0,17.0,28,2.0,2.0,9.0,66,120,10.0,120,7.0,1.0,2.0,6.0,27,8,7.0,6.0,26.0,35,4.0,3.0,20,13.0,4.0,4.0,5.0,6.0,6.0,4,5.0,5.0,7.0,1.0,8.0,7.0,5.0,,35,9.0,2.0,9.0,80,49,29,5.0,120,3.0,3.0,14,120,1.0,2.0,,13.0,27,2.0,,21,4.0,4,7.0,16,18,36,14,11.0,9.0,4.0,6.0,12.0,,1.0,5.0,3.0,2.0,9.0,24,58,6,1.0,8.0,55.0,80,12,4.0,62,14,9,,11.0,,3.0,7,1.0,,13.0,5.0,4.0,25,7.0,81,38,15.0,10,3.0,3.0,9.0,37,4.0,6.0,2.0,7.0,15,10,3.0,,9.0,2.0,4.0,7.0,4.0,3.0,4.0,4.0,,14,3.0,8.0,1.0,2.0,33,15.0,2.0,15.0,23,21,,12.0,4.0,52,3.0,20,72,6.0,99,1.0,5.0,120,2.0,10,33,12.0,9,48,6.0,,1.0,4.0,2.0,4.0,96,2.0,92,4.0,2.0,2.0,4.0,34,2.0,5.0,27,100,4.0,11,6.0,13.0,68,4.0,3.0,,26.0,25.0,8,39,,32,8,16.0,21,21,11.0,6.0,7.0,32,9.0,10.0,11.0,5.0,8.0,5.0,6,29,2.0,,10,,120,11.0,12.0,3.0,14,1.0,5.0,7.0,1.0,3.0,33,5.0,4.0,28.0,2.0,91,5.0,4.0,9,1.0,2.0,3.0,2.0,5.0,11,17,119,,7.0,5.0,52,54,,12,8.0,81,10,6.0,5,7.0,84,59,6.0,17,5.0,2.0,,1.0,31.0,4,5.0,5.0,26,1.0,51,22,12,35.0,5.0,5.0,1.0,6,,9.0,85,4.0,4.0,5.0,5.0,11.0,8,5.0,19,21,120,11.0,10.0,4.0,26,2.0,9.0,2.0,5.0,24,10.0,,18.0,13,4.0,,12,9,18,13.0,41,10.0,12.0,1.0,6.0,6.0,11.0,9.0,7,5.0,106,1.0,2.0,5.0,38,4.0,3.0,12.0,2.0,2.0,22.0,57,11.0,2.0,,26,,9.0,6.0,4,9.0,120,13,5.0,8.0,41,5.0,40,22,9.0,2,2.0,5.0,2.0,34,14.0,7.0
2017-02-05,14,20,7.0,,,4.0,2.0,7.0,12.0,,8.0,1.0,,13.0,,27,3.0,7.0,7.0,25.0,16,3.0,4.0,2.0,,1.0,2.0,4,24.0,4.0,9.0,65,1.0,19,4.0,10.0,,7.0,5.0,5.0,,3.0,3.0,14.0,1.0,15.0,5.0,8.0,,4.0,8.0,3.0,63,14.0,1.0,13,116,,2.0,15,55,9.0,120,1.0,117,3,25,37,1.0,88,4.0,120,19,33,34,,3.0,23.0,3.0,7.0,1.0,21.0,1.0,4,26,3.0,5.0,3.0,5,3.0,2.0,11,10,4.0,5.0,2.0,3.0,1.0,4,6.0,38,24,,3.0,,,3.0,120,,2.0,112,1.0,3.0,11.0,7.0,17.0,3,1.0,4,,5,7.0,2.0,5.0,3.0,120,6.0,30.0,8,12.0,,1.0,94,11.0,16.0,7.0,1.0,2.0,1.0,5.0,27.0,10.0,2.0,1.0,120,1,1.0,1.0,3.0,18,9.0,83,3.0,3.0,17.0,2.0,19,2.0,1.0,4.0,71,120,2.0,120,6.0,1.0,1.0,2.0,32,11,3.0,4.0,8.0,45,,4.0,5,7.0,2.0,9.0,,1.0,8.0,2,,,6.0,2.0,,20.0,2.0,1.0,33,22.0,1.0,8.0,57,25,22,11.0,120,1.0,6.0,13,120,,4.0,,11.0,23,6.0,1.0,12,4.0,4,16.0,14,14,32,7,20.0,8.0,3.0,8.0,8.0,1.0,1.0,3.0,3.0,1.0,2.0,18,78,8,13.0,,42.0,48,10,1.0,31,3,8,1.0,5.0,1.0,,6,1.0,,14.0,7.0,4.0,29,3.0,60,20,8.0,7,5.0,8.0,10.0,37,4.0,2.0,,2.0,9,8,3.0,1.0,33.0,3.0,1.0,4.0,13.0,2.0,1.0,6.0,,28,7.0,11.0,,1.0,42,9.0,,2.0,38,32,9.0,10.0,15.0,48,4.0,15,73,2.0,104,7.0,2.0,120,1.0,8,60,6.0,6,44,1.0,,,2.0,,4.0,66,2.0,102,2.0,,8.0,,36,1.0,5.0,17,58,2.0,27,10.0,17.0,101,5.0,1.0,,27.0,13.0,10,28,2.0,37,6,6.0,20,11,4.0,9.0,4.0,35,9.0,1.0,9.0,3.0,4.0,2.0,18,13,,1.0,5,2.0,120,1.0,36.0,1.0,9,,3.0,1.0,1.0,4.0,32,3.0,2.0,13.0,1.0,120,1.0,10.0,8,1.0,1.0,,11.0,3.0,8,7,120,2.0,2.0,5.0,57,47,1.0,28,11.0,56,5,5.0,11,14.0,107,67,,7,7.0,2.0,,1.0,24.0,10,2.0,14.0,8,,40,14,9,20.0,5.0,,1.0,6,1.0,5.0,66,2.0,,8.0,3.0,21.0,12,2.0,19,16,120,10.0,5.0,2.0,39,,6.0,,1.0,60,14.0,2.0,5.0,7,10.0,,13,21,29,32.0,57,5.0,6.0,2.0,4.0,4.0,2.0,4.0,2,7.0,120,9.0,18.0,10.0,64,2.0,3.0,,2.0,,1.0,41,20.0,1.0,,23,,3.0,6.0,16,4.0,120,1,14.0,2.0,45,,85,30,2.0,9,3.0,5.0,,47,10.0,6.0
2017-02-06,30,120,16.0,,25.0,14.0,10.0,5.0,15.0,,15.0,,14.0,18.0,21.0,39,26.0,13.0,13.0,30.0,100,2.0,80.0,10.0,2.0,12.0,14.0,15,120.0,22.0,51.0,66,13.0,28,8.0,13.0,1.0,4.0,15.0,6.0,24.0,13.0,2.0,50.0,8.0,22.0,29.0,17.0,7.0,7.0,10.0,9.0,74,42.0,13.0,20,120,3.0,19.0,47,66,4.0,120,17.0,119,12,84,70,23.0,120,15.0,120,12,47,34,,1.0,120.0,3.0,19.0,16.0,13.0,13.0,1,80,4.0,7.0,7.0,51,9.0,18.0,31,9,15.0,12.0,6.0,4.0,7.0,7,22.0,66,22,19.0,10.0,8.0,,10.0,120,1.0,7.0,120,23.0,3.0,4.0,8.0,11.0,3,14.0,12,8.0,11,20.0,1.0,6.0,22.0,120,5.0,76.0,23,24.0,2.0,32.0,109,20.0,12.0,4.0,2.0,3.0,8.0,24.0,21.0,15.0,8.0,14.0,120,11,15.0,5.0,16.0,9,23.0,115,4.0,6.0,30.0,35.0,75,11.0,17.0,15.0,94,120,12.0,120,17.0,13.0,6.0,4.0,41,20,15.0,9.0,25.0,63,20.0,5.0,30,12.0,4.0,12.0,18.0,25.0,8.0,9,9.0,5.0,14.0,1.0,12.0,9.0,6.0,6.0,37,16.0,18.0,9.0,120,64,69,11.0,120,4.0,5.0,21,120,3.0,120.0,,5.0,29,3.0,8.0,42,5.0,9,2.0,14,21,43,14,14.0,40.0,6.0,6.0,14.0,,4.0,3.0,6.0,7.0,10.0,44,120,11,39.0,10.0,47.0,106,20,5.0,66,77,14,6.0,27.0,,15.0,63,10.0,,14.0,59.0,10.0,37,2.0,119,42,26.0,18,7.0,3.0,17.0,30,18.0,6.0,3.0,7.0,29,15,9.0,7.0,19.0,14.0,12.0,19.0,20.0,21.0,11.0,8.0,,120,9.0,15.0,2.0,4.0,54,20.0,11.0,12.0,44,43,10.0,120.0,10.0,54,3.0,40,79,6.0,120,7.0,6.0,120,6.0,8,120,10.0,35,58,18.0,1.0,4.0,14.0,2.0,8.0,74,5.0,120,7.0,1.0,14.0,9.0,38,,16.0,32,120,4.0,53,50.0,14.0,120,13.0,9.0,2.0,21.0,15.0,22,29,5.0,36,8,28.0,36,30,8.0,26.0,11.0,30,16.0,54.0,19.0,4.0,5.0,5.0,14,37,6.0,3.0,6,21.0,120,15.0,120.0,10.0,22,,4.0,9.0,7.0,6.0,39,21.0,4.0,29.0,7.0,120,4.0,13.0,62,4.0,3.0,13.0,31.0,3.0,12,25,120,14.0,5.0,12.0,51,76,9.0,16,8.0,120,21,16.0,9,9.0,120,120,3.0,17,19.0,7.0,7.0,5.0,32.0,6,50.0,21.0,34,1.0,63,28,22,71.0,8.0,1.0,4.0,16,6.0,8.0,120,8.0,7.0,20.0,,7.0,17,17.0,50,39,120,12.0,42.0,5.0,45,9.0,11.0,4.0,2.0,40,19.0,3.0,13.0,12,10.0,,19,19,31,15.0,50,22.0,5.0,1.0,12.0,12.0,16.0,14.0,12,14.0,120,14.0,6.0,33.0,86,5.0,14.0,15.0,8.0,6.0,7.0,47,25.0,3.0,,43,,32.0,25.0,11,28.0,120,8,10.0,5.0,90,9.0,93,26,4.0,14,12.0,18.0,5.0,58,13.0,11.0
2017-02-07,38,89,8.0,,14.0,10.0,1.0,7.0,14.0,,18.0,3.0,19.0,15.0,47.0,53,12.0,3.0,8.0,32.0,120,15.0,66.0,14.0,3.0,22.0,25.0,23,71.0,17.0,15.0,80,31.0,26,13.0,15.0,12.0,12.0,11.0,63.0,5.0,7.0,2.0,9.0,12.0,12.0,31.0,69.0,6.0,7.0,10.0,8.0,108,120.0,18.0,28,120,11.0,49.0,63,73,9.0,120,21.0,120,3,67,66,10.0,120,93.0,120,21,28,35,5.0,11.0,97.0,9.0,118.0,4.0,8.0,11.0,30,27,3.0,5.0,25.0,28,4.0,12.0,19,16,11.0,12.0,15.0,18.0,14.0,20,36.0,58,38,11.0,16.0,4.0,3.0,4.0,120,6.0,8.0,116,13.0,5.0,6.0,28.0,15.0,14,10.0,22,6.0,12,82.0,10.0,3.0,15.0,118,8.0,40.0,40,120.0,3.0,14.0,120,17.0,16.0,9.0,4.0,4.0,11.0,17.0,23.0,24.0,17.0,13.0,120,18,8.0,14.0,7.0,57,23.0,118,9.0,4.0,21.0,23.0,104,10.0,21.0,9.0,79,120,14.0,120,20.0,9.0,11.0,9.0,30,27,10.0,9.0,24.0,69,4.0,6.0,36,11.0,6.0,27.0,11.0,36.0,18.0,1,9.0,6.0,10.0,7.0,15.0,13.0,2.0,11.0,55,43.0,45.0,12.0,120,120,82,15.0,120,3.0,11.0,36,120,7.0,43.0,,7.0,35,12.0,8.0,24,7.0,23,16.0,15,26,60,20,15.0,26.0,17.0,15.0,7.0,,4.0,69.0,6.0,17.0,14.0,38,67,15,25.0,44.0,29.0,72,28,11.0,88,35,80,9.0,9.0,1.0,2.0,34,21.0,,15.0,47.0,5.0,35,5.0,120,64,18.0,26,6.0,9.0,24.0,49,92.0,11.0,10.0,4.0,66,29,7.0,5.0,18.0,7.0,8.0,16.0,19.0,13.0,8.0,5.0,,118,9.0,22.0,3.0,12.0,78,17.0,8.0,29.0,31,45,9.0,54.0,14.0,80,10.0,42,116,9.0,120,14.0,9.0,120,8.0,12,120,15.0,33,59,31.0,4.0,4.0,8.0,6.0,73.0,120,8.0,120,10.0,5.0,19.0,3.0,28,6.0,12.0,36,120,9.0,54,120.0,52.0,120,12.0,15.0,8.0,29.0,33.0,17,58,39.0,56,10,13.0,19,24,5.0,17.0,16.0,34,13.0,34.0,11.0,7.0,10.0,8.0,18,35,7.0,5.0,4,22.0,120,19.0,33.0,14.0,99,4.0,4.0,19.0,10.0,13.0,48,12.0,4.0,19.0,9.0,120,14.0,19.0,53,8.0,7.0,10.0,11.0,8.0,29,35,120,12.0,4.0,88.0,79,84,8.0,21,16.0,120,21,8.0,5,11.0,120,100,8.0,12,11.0,7.0,5.0,15.0,37.0,15,58.0,21.0,25,5.0,11,22,12,120.0,14.0,6.0,4.0,12,16.0,13.0,112,53.0,2.0,100.0,3.0,9.0,17,12.0,58,24,120,19.0,120.0,9.0,50,43.0,44.0,3.0,3.0,38,83.0,2.0,14.0,32,6.0,,16,18,45,30.0,92,20.0,12.0,19.0,36.0,23.0,8.0,12.0,5,17.0,120,9.0,16.0,18.0,69,7.0,20.0,14.0,4.0,10.0,8.0,120,107.0,23.0,,38,,24.0,18.0,7,49.0,120,21,15.0,16.0,120,17.0,94,32,17.0,24,16.0,24.0,,58,8.0,14.0
2017-02-08,31,74,11.0,,13.0,8.0,24.0,5.0,24.0,,11.0,9.0,27.0,14.0,37.0,43,40.0,8.0,13.0,35.0,42,11.0,14.0,7.0,10.0,11.0,15.0,6,47.0,22.0,9.0,59,16.0,53,28.0,12.0,6.0,15.0,19.0,40.0,7.0,10.0,19.0,14.0,7.0,24.0,30.0,81.0,4.0,7.0,4.0,6.0,85,73.0,23.0,88,120,4.0,16.0,45,94,9.0,120,27.0,120,5,45,57,19.0,120,35.0,120,18,41,31,4.0,5.0,92.0,23.0,34.0,5.0,13.0,4.0,41,42,10.0,9.0,8.0,26,22.0,8.0,26,10,16.0,13.0,41.0,3.0,13.0,16,35.0,77,33,15.0,23.0,8.0,5.0,13.0,120,2.0,10.0,120,2.0,3.0,10.0,7.0,12.0,15,10.0,21,9.0,8,110.0,4.0,8.0,15.0,120,7.0,44.0,48,67.0,5.0,10.0,108,15.0,23.0,5.0,2.0,7.0,21.0,11.0,19.0,54.0,14.0,13.0,120,10,7.0,6.0,4.0,49,7.0,120,11.0,14.0,11.0,13.0,115,27.0,12.0,25.0,82,120,9.0,120,13.0,13.0,11.0,4.0,32,23,11.0,11.0,22.0,81,8.0,10.0,120,3.0,8.0,44.0,15.0,13.0,12.0,6,10.0,4.0,4.0,1.0,5.0,12.0,19.0,44.0,44,58.0,41.0,9.0,86,120,120,14.0,120,9.0,9.0,56,120,19.0,19.0,,11.0,48,12.0,11.0,18,12.0,27,16.0,11,23,69,17,16.0,23.0,25.0,58.0,6.0,1.0,8.0,45.0,6.0,26.0,17.0,38,111,18,6.0,17.0,112.0,67,100,1.0,51,40,38,33.0,16.0,,2.0,42,5.0,,18.0,26.0,2.0,43,,120,65,9.0,61,12.0,14.0,25.0,70,23.0,12.0,1.0,4.0,44,72,5.0,10.0,13.0,10.0,14.0,20.0,41.0,12.0,40.0,11.0,,39,16.0,13.0,3.0,4.0,62,24.0,12.0,15.0,42,63,29.0,28.0,5.0,90,13.0,37,114,9.0,120,12.0,8.0,111,9.0,13,120,22.0,19,116,13.0,4.0,2.0,8.0,13.0,120.0,75,12.0,120,10.0,1.0,29.0,9.0,41,1.0,18.0,29,116,7.0,58,38.0,22.0,120,6.0,9.0,25.0,41.0,28.0,21,45,25.0,48,22,24.0,52,27,16.0,23.0,20.0,31,13.0,22.0,12.0,4.0,6.0,10.0,21,22,10.0,10.0,32,10.0,120,14.0,13.0,11.0,79,3.0,5.0,12.0,16.0,5.0,39,32.0,4.0,13.0,4.0,120,18.0,11.0,16,6.0,7.0,19.0,13.0,7.0,24,31,120,30.0,4.0,35.0,120,68,5.0,38,11.0,119,42,18.0,13,6.0,120,103,7.0,41,5.0,6.0,6.0,9.0,22.0,22,34.0,27.0,22,7.0,50,26,14,55.0,13.0,7.0,4.0,13,9.0,14.0,120,22.0,9.0,43.0,5.0,14.0,15,7.0,60,13,120,48.0,120.0,9.0,69,13.0,100.0,9.0,1.0,51,93.0,,10.0,13,17.0,,20,50,21,23.0,41,16.0,15.0,17.0,25.0,21.0,32.0,5.0,10,12.0,120,16.0,6.0,13.0,97,5.0,15.0,15.0,5.0,17.0,6.0,107,24.0,36.0,,50,,42.0,14.0,10,34.0,120,23,13.0,9.0,117,20.0,70,35,12.0,28,71.0,17.0,5.0,47,11.0,13.0
2017-02-09,43,115,20.0,,2.0,6.0,5.0,1.0,59.0,,9.0,9.0,8.0,14.0,27.0,35,24.0,10.0,11.0,38.0,35,15.0,15.0,1.0,9.0,32.0,13.0,18,28.0,21.0,11.0,77,12.0,32,14.0,12.0,2.0,9.0,73.0,41.0,26.0,11.0,16.0,17.0,8.0,25.0,58.0,45.0,5.0,11.0,11.0,4.0,96,26.0,5.0,120,120,14.0,18.0,65,120,6.0,120,27.0,120,11,99,54,7.0,120,20.0,120,15,33,16,2.0,5.0,93.0,9.0,19.0,11.0,7.0,9.0,31,81,9.0,28.0,12.0,12,16.0,8.0,17,22,36.0,20.0,19.0,6.0,43.0,18,41.0,120,36,16.0,20.0,15.0,4.0,17.0,120,34.0,5.0,84,16.0,7.0,8.0,25.0,7.0,5,5.0,9,14.0,17,33.0,4.0,5.0,13.0,120,10.0,58.0,118,20.0,2.0,17.0,120,18.0,16.0,2.0,4.0,10.0,21.0,5.0,14.0,18.0,6.0,14.0,120,19,8.0,16.0,11.0,29,20.0,115,5.0,17.0,14.0,16.0,65,7.0,8.0,20.0,84,120,11.0,120,9.0,33.0,16.0,2.0,24,18,16.0,10.0,23.0,102,3.0,9.0,96,8.0,3.0,18.0,10.0,16.0,22.0,14,17.0,5.0,16.0,2.0,7.0,13.0,20.0,50.0,41,52.0,16.0,18.0,78,120,120,18.0,120,15.0,2.0,120,120,17.0,15.0,,4.0,42,6.0,12.0,35,6.0,10,28.0,38,27,120,21,9.0,12.0,25.0,72.0,7.0,,31.0,31.0,30.0,23.0,15.0,28,108,28,8.0,7.0,120.0,52,71,10.0,72,36,23,32.0,12.0,,8.0,22,10.0,,7.0,31.0,8.0,17,2.0,120,117,116.0,51,1.0,7.0,17.0,62,14.0,9.0,5.0,9.0,25,47,7.0,3.0,19.0,8.0,16.0,19.0,61.0,17.0,32.0,6.0,,25,10.0,33.0,4.0,14.0,30,23.0,7.0,10.0,54,36,9.0,37.0,6.0,61,42.0,39,103,8.0,120,26.0,3.0,120,7.0,11,107,8.0,12,80,16.0,1.0,3.0,13.0,2.0,49.0,84,11.0,120,23.0,2.0,23.0,8.0,41,2.0,57.0,26,115,12.0,54,37.0,22.0,120,11.0,4.0,67.0,54.0,18.0,36,21,22.0,35,34,25.0,31,20,9.0,10.0,12.0,38,5.0,23.0,117.0,3.0,11.0,4.0,15,38,3.0,10.0,13,6.0,120,6.0,16.0,7.0,35,7.0,3.0,11.0,6.0,16.0,49,120.0,9.0,7.0,5.0,120,5.0,12.0,11,6.0,7.0,5.0,16.0,9.0,20,38,120,13.0,9.0,14.0,120,42,1.0,15,39.0,120,16,13.0,7,10.0,120,93,8.0,12,13.0,8.0,5.0,19.0,19.0,29,23.0,18.0,35,7.0,38,23,12,76.0,5.0,11.0,7.0,38,8.0,14.0,120,10.0,1.0,16.0,7.0,15.0,10,10.0,71,33,120,31.0,68.0,7.0,62,10.0,73.0,8.0,8.0,49,57.0,3.0,14.0,24,17.0,,21,52,37,54.0,63,5.0,13.0,17.0,120.0,30.0,7.0,10.0,12,19.0,117,16.0,8.0,24.0,120,13.0,8.0,12.0,5.0,15.0,10.0,36,21.0,17.0,,120,,49.0,15.0,11,42.0,120,15,32.0,20.0,120,16.0,87,19,18.0,21,18.0,17.0,7.0,53,6.0,14.0
2017-02-10,26,71,32.0,,21.0,8.0,15.0,6.0,22.0,,9.0,10.0,9.0,11.0,26.0,37,12.0,5.0,7.0,13.0,33,5.0,18.0,6.0,15.0,21.0,38.0,41,20.0,79.0,6.0,47,10.0,39,10.0,9.0,9.0,17.0,24.0,16.0,16.0,7.0,10.0,7.0,3.0,11.0,20.0,33.0,8.0,6.0,3.0,6.0,99,31.0,30.0,60,120,9.0,13.0,116,110,12.0,120,17.0,120,55,53,66,15.0,117,34.0,120,15,14,31,4.0,5.0,106.0,21.0,9.0,7.0,4.0,6.0,13,51,2.0,11.0,19.0,21,15.0,26.0,14,15,15.0,10.0,11.0,7.0,20.0,19,48.0,120,38,20.0,9.0,9.0,5.0,10.0,120,18.0,3.0,120,10.0,13.0,10.0,11.0,12.0,12,7.0,14,7.0,18,15.0,4.0,5.0,12.0,120,8.0,60.0,67,12.0,9.0,23.0,119,7.0,14.0,5.0,3.0,8.0,24.0,8.0,5.0,9.0,7.0,10.0,120,16,10.0,10.0,4.0,18,14.0,120,9.0,5.0,14.0,12.0,62,8.0,8.0,31.0,88,120,11.0,120,8.0,13.0,1.0,1.0,26,37,16.0,16.0,26.0,61,5.0,9.0,47,13.0,6.0,23.0,16.0,14.0,16.0,13,17.0,2.0,10.0,8.0,5.0,2.0,11.0,13.0,58,58.0,13.0,9.0,87,120,58,9.0,120,12.0,7.0,54,120,7.0,17.0,,9.0,50,10.0,5.0,35,7.0,21,9.0,19,21,76,24,6.0,13.0,27.0,31.0,6.0,,40.0,18.0,109.0,18.0,10.0,32,78,14,5.0,28.0,120.0,96,49,1.0,82,23,25,36.0,11.0,1.0,8.0,10,6.0,,12.0,23.0,4.0,22,9.0,120,111,49.0,24,21.0,7.0,17.0,92,17.0,9.0,6.0,4.0,26,18,10.0,13.0,12.0,9.0,7.0,19.0,32.0,6.0,28.0,15.0,,34,13.0,23.0,6.0,9.0,82,25.0,11.0,26.0,49,120,11.0,36.0,5.0,68,15.0,38,114,6.0,120,17.0,7.0,120,11.0,13,120,17.0,23,50,7.0,6.0,2.0,9.0,3.0,39.0,101,11.0,120,13.0,7.0,13.0,5.0,41,3.0,29.0,28,120,4.0,39,29.0,18.0,120,11.0,7.0,25.0,44.0,15.0,16,44,15.0,49,18,26.0,37,15,3.0,17.0,12.0,46,6.0,22.0,48.0,9.0,5.0,16.0,24,62,11.0,5.0,6,9.0,120,9.0,8.0,5.0,30,14.0,6.0,16.0,8.0,12.0,46,61.0,7.0,10.0,3.0,120,9.0,16.0,11,5.0,89.0,6.0,15.0,4.0,36,22,120,13.0,13.0,13.0,93,62,4.0,24,21.0,111,28,8.0,6,7.0,120,56,7.0,21,14.0,23.0,2.0,29.0,6.0,7,14.0,17.0,31,4.0,46,24,7,63.0,12.0,6.0,9.0,32,10.0,5.0,120,11.0,9.0,24.0,7.0,21.0,19,14.0,41,24,120,31.0,47.0,4.0,58,7.0,50.0,13.0,1.0,49,52.0,1.0,11.0,15,14.0,,29,30,15,30.0,55,8.0,9.0,6.0,120.0,29.0,4.0,16.0,18,10.0,120,9.0,11.0,17.0,100,2.0,26.0,14.0,3.0,12.0,8.0,36,26.0,24.0,,120,,44.0,4.0,15,19.0,120,25,11.0,14.0,118,12.0,90,46,14.0,24,30.0,17.0,7.0,84,4.0,16.0
2017-02-11,11,29,11.0,,2.0,3.0,4.0,1.0,7.0,,5.0,9.0,4.0,9.0,8.0,17,2.0,2.0,5.0,23.0,13,4.0,3.0,4.0,1.0,4.0,9.0,19,11.0,17.0,4.0,30,1.0,17,3.0,,4.0,6.0,10.0,20.0,7.0,12.0,3.0,5.0,5.0,6.0,5.0,10.0,1.0,9.0,3.0,2.0,54,10.0,7.0,10,120,5.0,5.0,24,38,9.0,120,3.0,123,15,15,25,3.0,74,4.0,120,12,7,15,1.0,8.0,2.0,7.0,12.0,2.0,5.0,7.0,9,11,7.0,1.0,11.0,10,11.0,6.0,10,13,3.0,5.0,20.0,8.0,4.0,15,19.0,36,5,7.0,8.0,6.0,2.0,2.0,118,2.0,7.0,63,2.0,10.0,6.0,4.0,4.0,5,3.0,14,4.0,3,12.0,6.0,3.0,3.0,120,4.0,40.0,14,6.0,10.0,4.0,61,9.0,5.0,6.0,,2.0,15.0,8.0,10.0,5.0,6.0,8.0,119,4,1.0,7.0,,13,5.0,86,3.0,3.0,2.0,16.0,33,2.0,4.0,3.0,59,120,7.0,120,13.0,5.0,6.0,2.0,26,15,15.0,6.0,16.0,34,4.0,2.0,12,1.0,4.0,7.0,4.0,5.0,15.0,7,6.0,2.0,8.0,5.0,13.0,4.0,12.0,6.0,32,15.0,9.0,4.0,51,61,22,7.0,120,4.0,7.0,15,120,4.0,6.0,,3.0,20,2.0,8.0,10,2.0,9,2.0,20,17,31,10,2.0,5.0,1.0,8.0,12.0,,8.0,13.0,11.0,2.0,5.0,24,65,14,2.0,6.0,111.0,33,20,,37,13,9,5.0,2.0,,4.0,8,6.0,,8.0,8.0,1.0,15,2.0,57,23,9.0,12,4.0,5.0,5.0,24,2.0,6.0,6.0,3.0,6,9,3.0,7.0,6.0,1.0,4.0,5.0,9.0,4.0,23.0,6.0,,15,2.0,2.0,3.0,4.0,31,13.0,2.0,10.0,65,23,3.0,9.0,4.0,41,2.0,12,115,4.0,100,5.0,3.0,115,5.0,5,55,9.0,19,19,9.0,,13.0,2.0,1.0,9.0,51,5.0,90,3.0,6.0,6.0,6.0,12,,11.0,20,75,3.0,14,18.0,17.0,103,9.0,,3.0,10.0,8.0,9,19,6.0,40,5,9.0,18,5,4.0,4.0,6.0,15,7.0,12.0,12.0,1.0,6.0,4.0,3,29,2.0,7.0,10,3.0,120,5.0,5.0,1.0,11,1.0,2.0,5.0,4.0,5.0,28,5.0,3.0,1.0,1.0,101,2.0,18.0,4,2.0,12.0,1.0,6.0,8.0,6,2,113,5.0,2.0,6.0,27,22,1.0,7,7.0,113,9,,12,3.0,68,41,11.0,9,3.0,,2.0,2.0,3.0,8,12.0,5.0,9,,30,19,12,7.0,4.0,2.0,8.0,9,7.0,3.0,66,4.0,2.0,7.0,5.0,1.0,10,1.0,22,16,120,10.0,14.0,3.0,20,9.0,11.0,6.0,,36,14.0,,4.0,14,6.0,,5,11,18,9.0,49,1.0,13.0,6.0,11.0,11.0,4.0,4.0,10,13.0,119,4.0,5.0,9.0,44,,8.0,6.0,3.0,1.0,5.0,14,6.0,6.0,,87,,23.0,3.0,8,3.0,120,11,6.0,10.0,47,7.0,36,14,1.0,8,5.0,1.0,7.0,27,5.0,9.0
2017-02-12,16,10,5.0,,3.0,8.0,2.0,2.0,4.0,,,2.0,3.0,6.0,4.0,14,1.0,6.0,5.0,19.0,13,3.0,2.0,3.0,13.0,10.0,2.0,13,14.0,10.0,6.0,32,2.0,20,4.0,7.0,4.0,2.0,11.0,7.0,9.0,8.0,1.0,6.0,2.0,8.0,16.0,17.0,,6.0,7.0,3.0,38,15.0,,26,114,1.0,7.0,19,34,2.0,120,4.0,119,8,27,20,3.0,60,2.0,120,14,11,31,,4.0,23.0,8.0,17.0,7.0,,1.0,7,8,,3.0,6.0,9,6.0,6.0,5,20,3.0,2.0,8.0,3.0,2.0,8,21.0,42,25,10.0,4.0,2.0,3.0,3.0,120,3.0,6.0,59,,5.0,7.0,2.0,6.0,4,2.0,2,1.0,10,6.0,2.0,2.0,6.0,120,4.0,41.0,35,1.0,2.0,16.0,36,13.0,10.0,10.0,2.0,2.0,5.0,4.0,8.0,2.0,4.0,8.0,118,2,1.0,3.0,1.0,19,10.0,90,,3.0,6.0,6.0,34,6.0,2.0,16.0,52,120,5.0,120,6.0,5.0,4.0,3.0,36,12,5.0,9.0,16.0,77,1.0,,46,,1.0,13.0,3.0,1.0,7.0,1,7.0,,4.0,2.0,12.0,5.0,4.0,5.0,35,7.0,7.0,6.0,50,44,16,3.0,120,3.0,3.0,11,120,3.0,3.0,,1.0,36,6.0,5.0,5,3.0,3,3.0,9,21,43,6,8.0,1.0,,27.0,2.0,,7.0,10.0,4.0,4.0,4.0,15,29,14,5.0,3.0,67.0,37,13,,19,18,9,5.0,2.0,,,8,7.0,,4.0,14.0,,19,2.0,37,36,7.0,5,7.0,9.0,4.0,61,2.0,4.0,2.0,4.0,14,8,6.0,1.0,4.0,5.0,5.0,9.0,17.0,5.0,11.0,4.0,,6,8.0,5.0,,4.0,34,4.0,,4.0,62,18,2.0,12.0,11.0,32,,16,94,,115,1.0,,89,,9,54,3.0,10,34,8.0,1.0,4.0,4.0,2.0,7.0,73,6.0,96,7.0,1.0,6.0,4.0,19,2.0,8.0,20,54,3.0,26,1.0,7.0,116,9.0,,10.0,7.0,10.0,17,17,5.0,44,7,28.0,19,7,,15.0,14.0,21,6.0,7.0,7.0,2.0,6.0,8.0,7,31,1.0,2.0,15,1.0,120,4.0,3.0,3.0,16,2.0,2.0,5.0,2.0,1.0,27,5.0,3.0,2.0,3.0,120,1.0,9.0,5,1.0,4.0,7.0,7.0,,12,24,120,6.0,1.0,6.0,34,27,1.0,5,7.0,108,9,5.0,2,2.0,67,33,1.0,5,8.0,7.0,,2.0,6.0,15,9.0,4.0,9,1.0,39,27,11,4.0,6.0,4.0,6.0,20,7.0,7.0,38,4.0,,5.0,2.0,3.0,11,2.0,22,17,120,18.0,6.0,,24,4.0,9.0,4.0,,15,11.0,2.0,6.0,17,,,15,30,14,13.0,44,,13.0,3.0,4.0,7.0,8.0,5.0,10,9.0,120,2.0,14.0,17.0,59,3.0,,5.0,1.0,4.0,1.0,25,26.0,4.0,,58,,22.0,6.0,9,7.0,120,15,9.0,2.0,24,6.0,39,35,6.0,6,14.0,1.0,2.0,51,3.0,5.0
2017-02-13,27,54,12.0,,17.0,9.0,11.0,12.0,13.0,,8.0,7.0,9.0,19.0,22.0,34,11.0,6.0,8.0,47.0,19,6.0,9.0,8.0,1.0,24.0,14.0,62,21.0,28.0,26.0,52,11.0,28,13.0,15.0,12.0,15.0,34.0,22.0,12.0,16.0,16.0,15.0,23.0,18.0,26.0,33.0,26.0,1.0,5.0,2.0,120,13.0,11.0,69,120,6.0,7.0,75,80,22.0,120,25.0,118,22,34,57,24.0,120,30.0,120,30,38,31,2.0,5.0,101.0,10.0,30.0,40.0,6.0,6.0,59,54,11.0,19.0,10.0,19,9.0,14.0,49,19,6.0,16.0,20.0,12.0,11.0,9,34.0,54,25,7.0,19.0,32.0,8.0,7.0,120,5.0,11.0,120,3.0,16.0,13.0,12.0,6.0,13,7.0,14,20.0,21,18.0,11.0,18.0,29.0,120,8.0,44.0,45,15.0,5.0,6.0,120,34.0,27.0,5.0,1.0,3.0,30.0,6.0,9.0,23.0,11.0,28.0,120,17,16.0,21.0,1.0,29,15.0,119,8.0,7.0,29.0,24.0,74,3.0,9.0,22.0,77,120,30.0,120,7.0,6.0,7.0,1.0,53,23,19.0,19.0,12.0,120,1.0,7.0,19,9.0,8.0,14.0,27.0,27.0,14.0,15,8.0,3.0,25.0,8.0,7.0,12.0,16.0,17.0,41,34.0,13.0,11.0,116,120,120,17.0,120,13.0,10.0,61,120,26.0,8.0,,,39,3.0,10.0,32,4.0,16,17.0,26,32,40,20,6.0,17.0,17.0,20.0,4.0,2.0,10.0,12.0,44.0,7.0,10.0,28,81,66,1.0,20.0,120.0,47,39,4.0,45,23,19,20.0,9.0,,8.0,25,20.0,,7.0,41.0,6.0,13,8.0,120,56,13.0,9,16.0,9.0,10.0,86,10.0,9.0,4.0,7.0,17,24,8.0,10.0,21.0,5.0,15.0,16.0,44.0,12.0,10.0,12.0,,78,4.0,57.0,11.0,9.0,99,29.0,6.0,10.0,76,54,13.0,11.0,12.0,93,10.0,21,119,11.0,120,6.0,6.0,120,24.0,16,109,4.0,45,52,12.0,1.0,1.0,20.0,5.0,33.0,120,7.0,120,10.0,10.0,13.0,15.0,52,2.0,19.0,31,120,8.0,43,25.0,37.0,120,55.0,5.0,8.0,39.0,14.0,20,47,8.0,59,12,19.0,35,28,9.0,10.0,15.0,37,8.0,53.0,31.0,8.0,1.0,20.0,16,45,5.0,3.0,9,8.0,120,10.0,7.0,17.0,28,36.0,9.0,14.0,4.0,13.0,60,17.0,13.0,48.0,6.0,120,4.0,13.0,9,1.0,47.0,10.0,26.0,12.0,53,20,120,22.0,15.0,24.0,119,53,3.0,11,16.0,119,29,12.0,9,13.0,120,94,9.0,26,29.0,11.0,7.0,18.0,11.0,23,16.0,17.0,24,14.0,46,21,15,28.0,54.0,2.0,9.0,30,11.0,16.0,120,13.0,2.0,12.0,7.0,6.0,16,9.0,32,54,120,10.0,41.0,2.0,30,5.0,16.0,5.0,3.0,100,30.0,1.0,6.0,7,17.0,,21,24,18,15.0,88,2.0,13.0,8.0,44.0,15.0,8.0,9.0,18,15.0,120,12.0,24.0,6.0,86,4.0,32.0,17.0,7.0,13.0,4.0,19,9.0,14.0,,120,,19.0,6.0,20,20.0,120,54,17.0,2.0,61,11.0,120,35,10.0,16,14.0,19.0,6.0,55,12.0,15.0
2017-02-14,24,59,19.0,,77.0,21.0,13.0,20.0,13.0,,17.0,11.0,17.0,15.0,19.0,55,11.0,8.0,12.0,,25,7.0,4.0,19.0,31.0,22.0,14.0,93,24.0,21.0,11.0,106,5.0,51,5.0,15.0,9.0,6.0,27.0,7.0,19.0,22.0,7.0,14.0,11.0,15.0,14.0,30.0,5.0,12.0,7.0,17.0,103,12.0,11.0,41,120,28.0,9.0,68,63,6.0,120,9.0,120,15,103,73,13.0,120,15.0,120,25,32,34,12.0,12.0,87.0,18.0,10.0,15.0,6.0,4.0,120,69,6.0,18.0,7.0,19,14.0,25.0,18,21,8.0,9.0,26.0,34.0,9.0,6,21.0,87,34,14.0,14.0,17.0,7.0,10.0,120,18.0,5.0,102,10.0,5.0,7.0,22.0,6.0,29,10.0,19,7.0,14,22.0,13.0,4.0,13.0,120,19.0,51.0,34,8.0,4.0,17.0,115,13.0,14.0,9.0,3.0,5.0,27.0,11.0,12.0,20.0,2.0,49.0,120,17,8.0,80.0,2.0,24,28.0,117,9.0,12.0,24.0,88.0,60,13.0,5.0,25.0,111,120,16.0,120,13.0,17.0,14.0,7.0,27,38,22.0,19.0,24.0,120,8.0,11.0,32,14.0,,14.0,20.0,23.0,23.0,29,21.0,7.0,26.0,12.0,34.0,86.0,12.0,14.0,28,24.0,9.0,10.0,61,120,120,13.0,120,5.0,16.0,45,120,4.0,21.0,,6.0,24,13.0,20.0,29,3.0,16,20.0,33,28,30,23,8.0,14.0,11.0,48.0,8.0,,8.0,5.0,13.0,6.0,2.0,22,77,32,3.0,17.0,106.0,52,120,6.0,78,11,8,23.0,39.0,,6.0,7,10.0,,10.0,68.0,14.0,14,7.0,120,44,120.0,23,5.0,11.0,17.0,94,18.0,13.0,10.0,2.0,19,40,7.0,17.0,15.0,7.0,14.0,13.0,68.0,23.0,7.0,5.0,,17,16.0,21.0,80.0,7.0,86,25.0,16.0,26.0,81,45,9.0,17.0,9.0,95,9.0,40,120,27.0,120,11.0,8.0,120,69.0,23,117,9.0,17,48,21.0,1.0,6.0,13.0,6.0,9.0,109,21.0,120,5.0,39.0,16.0,9.0,34,3.0,16.0,71,120,2.0,41,29.0,14.0,120,20.0,4.0,7.0,35.0,17.0,16,22,3.0,93,8,44.0,26,35,7.0,24.0,16.0,38,5.0,44.0,120.0,3.0,9.0,20.0,16,74,8.0,7.0,19,8.0,120,24.0,12.0,18.0,23,29.0,29.0,17.0,16.0,15.0,55,21.0,4.0,8.0,4.0,120,12.0,7.0,33,1.0,13.0,10.0,8.0,7.0,31,22,115,10.0,19.0,21.0,103,120,9.0,15,18.0,120,10,7.0,14,12.0,120,95,19.0,15,9.0,9.0,7.0,9.0,11.0,19,6.0,8.0,42,9.0,41,17,17,48.0,56.0,11.0,13.0,20,11.0,34.0,120,29.0,12.0,24.0,7.0,7.0,8,12.0,75,34,120,23.0,29.0,5.0,36,11.0,14.0,6.0,,88,30.0,4.0,10.0,19,14.0,,15,41,8,120.0,106,10.0,14.0,11.0,35.0,19.0,16.0,19.0,18,12.0,120,3.0,15.0,19.0,97,8.0,17.0,19.0,9.0,14.0,4.0,42,14.0,7.0,,97,,46.0,15.0,58,12.0,120,55,26.0,10.0,117,6.0,120,40,16.0,60,22.0,13.0,7.0,60,16.0,7.0
2017-02-15,39,51,17.0,,19.0,19.0,3.0,10.0,21.0,4.0,41.0,19.0,7.0,6.0,15.0,117,2.0,7.0,5.0,6.0,27,13.0,2.0,13.0,11.0,8.0,14.0,120,18.0,70.0,12.0,120,6.0,41,8.0,12.0,4.0,5.0,15.0,11.0,9.0,16.0,16.0,14.0,6.0,8.0,8.0,19.0,1.0,9.0,3.0,20.0,109,25.0,12.0,33,120,16.0,4.0,57,93,53.0,120,3.0,120,4,120,81,8.0,105,7.0,120,25,47,85,4.0,11.0,108.0,16.0,23.0,6.0,2.0,14.0,62,90,4.0,7.0,2.0,13,6.0,32.0,16,15,11.0,6.0,36.0,13.0,7.0,9,36.0,70,76,28.0,27.0,7.0,10.0,3.0,120,13.0,6.0,100,9.0,9.0,8.0,10.0,6.0,8,3.0,15,31.0,63,10.0,6.0,8.0,21.0,120,12.0,33.0,49,3.0,10.0,51.0,114,13.0,20.0,18.0,2.0,4.0,39.0,9.0,10.0,11.0,8.0,120.0,120,17,9.0,78.0,1.0,32,19.0,120,3.0,6.0,7.0,60.0,57,8.0,5.0,11.0,118,120,17.0,120,6.0,6.0,1.0,8.0,36,40,23.0,15.0,15.0,120,1.0,40.0,29,8.0,4.0,13.0,9.0,11.0,21.0,56,13.0,3.0,22.0,7.0,9.0,48.0,1.0,2.0,44,15.0,1.0,10.0,58,116,101,16.0,120,10.0,8.0,27,120,13.0,7.0,,2.0,42,11.0,90.0,76,7.0,51,18.0,11,35,28,12,1.0,7.0,6.0,23.0,4.0,,5.0,12.0,11.0,1.0,4.0,15,120,118,5.0,4.0,73.0,60,120,5.0,106,27,24,9.0,17.0,,4.0,30,16.0,,4.0,55.0,5.0,24,5.0,120,57,100.0,11,8.0,6.0,14.0,120,8.0,30.0,4.0,6.0,37,51,7.0,8.0,14.0,6.0,24.0,28.0,120.0,1.0,5.0,32.0,1.0,29,5.0,14.0,53.0,3.0,116,18.0,4.0,18.0,120,78,11.0,15.0,7.0,96,6.0,34,116,7.0,120,12.0,4.0,120,85.0,26,116,7.0,22,54,30.0,,2.0,4.0,5.0,26.0,105,7.0,120,17.0,40.0,13.0,9.0,30,,6.0,120,120,24.0,56,45.0,35.0,110,19.0,8.0,28.0,14.0,5.0,15,27,8.0,93,5,19.0,28,39,2.0,21.0,19.0,35,7.0,77.0,110.0,9.0,6.0,14.0,11,77,4.0,3.0,18,3.0,120,26.0,2.0,11.0,12,20.0,10.0,19.0,8.0,14.0,66,29.0,11.0,6.0,17.0,120,12.0,7.0,52,5.0,11.0,11.0,11.0,10.0,120,26,120,2.0,7.0,13.0,50,99,1.0,12,8.0,120,16,7.0,6,5.0,120,93,3.0,8,9.0,8.0,39.0,2.0,13.0,17,4.0,23.0,44,26.0,68,18,27,90.0,35.0,4.0,3.0,23,13.0,37.0,115,18.0,,12.0,1.0,10.0,20,11.0,54,55,120,14.0,12.0,2.0,20,6.0,24.0,4.0,4.0,50,17.0,8.0,16.0,7,11.0,,15,51,23,100.0,111,5.0,2.0,7.0,8.0,12.0,8.0,5.0,26,8.0,116,6.0,13.0,19.0,91,3.0,80.0,7.0,5.0,3.0,4.0,24,10.0,21.0,,84,,25.0,9.0,27,22.0,120,46,16.0,12.0,118,6.0,120,29,11.0,47,23.0,4.0,5.0,54,27.0,9.0
2017-02-16,22,36,17.0,,13.0,52.0,12.0,16.0,22.0,,51.0,7.0,11.0,9.0,19.0,52,6.0,8.0,6.0,37.0,19,37.0,1.0,46.0,8.0,7.0,18.0,85,16.0,47.0,46.0,89,3.0,26,16.0,9.0,5.0,5.0,6.0,18.0,6.0,5.0,78.0,20.0,16.0,8.0,16.0,16.0,,2.0,9.0,36.0,118,20.0,33.0,40,120,6.0,7.0,52,101,39.0,120,34.0,120,16,60,91,18.0,108,2.0,120,39,18,53,3.0,7.0,108.0,2.0,19.0,15.0,7.0,8.0,25,76,3.0,8.0,15.0,33,14.0,28.0,21,17,2.0,14.0,120.0,7.0,6.0,13,36.0,75,95,8.0,17.0,4.0,1.0,3.0,120,7.0,14.0,120,10.0,23.0,6.0,8.0,8.0,10,5.0,23,24.0,116,9.0,7.0,3.0,76.0,120,7.0,48.0,48,10.0,4.0,56.0,120,17.0,26.0,19.0,1.0,7.0,59.0,4.0,18.0,7.0,7.0,62.0,120,11,13.0,42.0,7.0,43,7.0,120,6.0,3.0,4.0,19.0,84,11.0,7.0,16.0,59,119,8.0,120,8.0,6.0,3.0,29.0,18,27,16.0,12.0,17.0,120,5.0,13.0,31,8.0,2.0,25.0,9.0,11.0,14.0,43,9.0,1.0,17.0,11.0,9.0,15.0,11.0,5.0,42,29.0,8.0,15.0,73,120,46,12.0,120,22.0,5.0,34,120,1.0,8.0,,3.0,43,9.0,31.0,27,21.0,52,24.0,22,20,38,23,3.0,34.0,10.0,30.0,8.0,,17.0,16.0,11.0,3.0,3.0,10,118,118,10.0,4.0,61.0,66,75,4.0,89,27,9,14.0,14.0,,7.0,16,14.0,,6.0,37.0,2.0,22,6.0,120,35,60.0,16,42.0,7.0,19.0,56,6.0,72.0,,5.0,19,62,6.0,11.0,5.0,4.0,38.0,18.0,51.0,20.0,21.0,16.0,,26,10.0,19.0,22.0,4.0,56,14.0,8.0,21.0,76,48,10.0,5.0,7.0,118,7.0,31,109,8.0,120,9.0,10.0,120,120.0,20,120,11.0,27,79,9.0,,1.0,25.0,10.0,18.0,74,11.0,120,15.0,9.0,14.0,9.0,93,4.0,5.0,68,120,12.0,66,20.0,14.0,120,34.0,2.0,21.0,21.0,12.0,17,14,6.0,83,9,19.0,38,25,6.0,22.0,16.0,24,7.0,120.0,62.0,16.0,5.0,38.0,21,58,4.0,2.0,55,2.0,120,21.0,6.0,9.0,26,6.0,36.0,17.0,5.0,5.0,40,23.0,4.0,27.0,22.0,120,3.0,8.0,56,7.0,6.0,12.0,11.0,7.0,120,26,120,12.0,3.0,20.0,40,89,2.0,23,20.0,120,18,35.0,13,6.0,120,68,10.0,16,16.0,10.0,66.0,13.0,21.0,22,7.0,17.0,35,26.0,19,25,29,40.0,13.0,8.0,2.0,102,5.0,9.0,120,13.0,6.0,21.0,6.0,7.0,26,8.0,48,45,120,8.0,31.0,2.0,27,8.0,33.0,8.0,7.0,56,11.0,,7.0,14,21.0,,25,27,21,67.0,66,7.0,13.0,8.0,18.0,27.0,53.0,29.0,24,17.0,120,9.0,22.0,43.0,73,8.0,10.0,9.0,31.0,7.0,3.0,76,4.0,30.0,,77,,44.0,8.0,20,10.0,120,85,5.0,19.0,95,4.0,120,18,29.0,28,12.0,5.0,7.0,110,9.0,15.0
2017-02-17,120,43,15.0,,28.0,19.0,21.0,11.0,18.0,,44.0,12.0,11.0,11.0,20.0,120,5.0,10.0,7.0,28.0,18,18.0,10.0,29.0,63.0,12.0,17.0,54,16.0,46.0,15.0,55,2.0,18,5.0,10.0,6.0,18.0,9.0,14.0,22.0,9.0,120.0,8.0,7.0,11.0,17.0,10.0,1.0,5.0,6.0,38.0,120,12.0,73.0,20,120,6.0,8.0,45,71,33.0,110,13.0,120,6,40,60,17.0,92,14.0,120,20,25,38,4.0,17.0,97.0,3.0,23.0,7.0,4.0,8.0,32,74,3.0,2.0,5.0,29,10.0,16.0,53,28,2.0,10.0,54.0,18.0,26.0,35,22.0,56,50,10.0,10.0,5.0,12.0,13.0,120,8.0,16.0,104,4.0,12.0,14.0,4.0,4.0,37,6.0,18,120.0,120,13.0,10.0,9.0,52.0,105,14.0,39.0,70,4.0,12.0,31.0,120,40.0,13.0,91.0,,7.0,34.0,12.0,13.0,7.0,8.0,22.0,120,14,21.0,19.0,3.0,38,24.0,119,23.0,5.0,24.0,22.0,120,10.0,7.0,18.0,83,115,10.0,120,11.0,9.0,10.0,41.0,40,49,24.0,31.0,24.0,118,11.0,8.0,19,9.0,7.0,14.0,21.0,31.0,12.0,34,18.0,8.0,4.0,17.0,9.0,18.0,10.0,1.0,65,53.0,9.0,32.0,102,92,34,12.0,120,18.0,4.0,25,120,12.0,6.0,,,34,8.0,20.0,34,13.0,30,73.0,9,32,35,99,4.0,10.0,10.0,28.0,14.0,,2.0,16.0,11.0,7.0,1.0,12,107,53,18.0,6.0,88.0,58,56,15.0,120,26,27,15.0,32.0,,6.0,10,21.0,,14.0,116.0,7.0,31,8.0,111,59,18.0,8,45.0,13.0,15.0,108,16.0,19.0,13.0,3.0,22,30,7.0,53.0,14.0,9.0,43.0,109.0,33.0,4.0,15.0,9.0,,39,10.0,18.0,18.0,12.0,37,7.0,12.0,13.0,44,39,10.0,6.0,5.0,68,9.0,39,116,12.0,120,25.0,5.0,120,46.0,20,120,23.0,27,41,7.0,2.0,1.0,10.0,8.0,15.0,120,4.0,120,14.0,7.0,9.0,19.0,54,1.0,15.0,70,120,12.0,75,17.0,11.0,111,16.0,,12.0,20.0,10.0,24,33,7.0,51,9,18.0,57,19,4.0,22.0,22.0,38,18.0,114.0,16.0,6.0,12.0,34.0,5,63,6.0,5.0,55,6.0,120,6.0,43.0,15.0,17,13.0,18.0,8.0,12.0,29.0,28,19.0,6.0,12.0,11.0,120,7.0,12.0,24,2.0,8.0,6.0,12.0,8.0,78,17,120,5.0,9.0,11.0,53,44,6.0,10,10.0,98,51,18.0,7,9.0,120,93,6.0,37,5.0,14.0,26.0,8.0,8.0,8,5.0,12.0,30,26.0,25,20,30,25.0,18.0,16.0,7.0,52,9.0,12.0,112,10.0,6.0,5.0,8.0,10.0,12,7.0,50,53,120,22.0,12.0,1.0,29,16.0,50.0,7.0,,57,7.0,,17.0,9,41.0,,13,22,22,108.0,70,19.0,9.0,3.0,22.0,11.0,31.0,14.0,80,16.0,116,8.0,31.0,16.0,61,9.0,43.0,13.0,8.0,21.0,6.0,114,8.0,7.0,,37,,28.0,9.0,23,21.0,120,120,8.0,10.0,45,6.0,120,32,16.0,25,20.0,6.0,18.0,65,24.0,35.0
2017-02-18,27,17,10.0,,16.0,12.0,2.0,6.0,9.0,,12.0,6.0,5.0,24.0,8.0,17,5.0,8.0,7.0,23.0,10,6.0,4.0,3.0,7.0,,6.0,25,8.0,19.0,4.0,35,2.0,23,3.0,7.0,7.0,9.0,4.0,7.0,2.0,8.0,28.0,6.0,2.0,5.0,12.0,4.0,1.0,2.0,3.0,30.0,60,7.0,14.0,6,120,5.0,6.0,23,23,31.0,121,3.0,115,11,39,32,8.0,86,10.0,120,6,18,27,1.0,2.0,29.0,4.0,12.0,7.0,6.0,5.0,35,34,3.0,4.0,2.0,11,9.0,3.0,11,9,,4.0,12.0,10.0,6.0,13,4.0,24,18,8.0,11.0,8.0,1.0,3.0,120,19.0,8.0,48,,5.0,18.0,5.0,4.0,4,1.0,6,12.0,118,3.0,1.0,6.0,12.0,120,7.0,32.0,17,5.0,3.0,4.0,119,6.0,7.0,10.0,,3.0,6.0,5.0,8.0,8.0,2.0,25.0,120,7,3.0,15.0,2.0,12,3.0,83,1.0,5.0,7.0,5.0,44,5.0,1.0,12.0,34,120,7.0,120,5.0,5.0,3.0,12.0,16,16,15.0,11.0,13.0,53,4.0,7.0,8,1.0,,7.0,7.0,37.0,13.0,22,9.0,2.0,7.0,6.0,3.0,8.0,2.0,1.0,27,37.0,6.0,9.0,49,46,20,2.0,120,1.0,5.0,13,120,8.0,10.0,,2.0,17,10.0,4.0,11,2.0,11,51.0,6,19,20,33,1.0,6.0,2.0,13.0,3.0,,3.0,6.0,5.0,1.0,,3,50,26,5.0,3.0,72.0,25,27,4.0,66,10,14,1.0,5.0,1.0,2.0,4,8.0,,7.0,15.0,7.0,17,5.0,56,29,12.0,9,3.0,6.0,15.0,23,2.0,3.0,3.0,4.0,13,7,4.0,7.0,7.0,,6.0,15.0,10.0,3.0,8.0,10.0,,18,8.0,4.0,14.0,6.0,11,17.0,4.0,6.0,18,12,2.0,7.0,8.0,64,8.0,30,97,6.0,120,3.0,7.0,120,4.0,29,115,9.0,9,18,6.0,,21.0,1.0,3.0,6.0,76,4.0,90,6.0,13.0,5.0,6.0,13,4.0,15.0,28,66,9.0,30,2.0,5.0,86,6.0,1.0,4.0,2.0,7.0,5,15,4.0,77,2,5.0,13,5,8.0,8.0,11.0,17,4.0,12.0,10.0,6.0,12.0,12.0,2,51,9.0,3.0,7,4.0,120,12.0,10.0,8.0,6,8.0,6.0,7.0,1.0,41.0,29,3.0,8.0,11.0,4.0,55,5.0,10.0,8,2.0,6.0,8.0,7.0,1.0,17,15,120,11.0,2.0,5.0,28,34,8.0,8,9.0,56,14,3.0,7,1.0,100,70,8.0,7,4.0,11.0,6.0,2.0,3.0,4,2.0,12.0,11,5.0,13,11,6,8.0,6.0,2.0,3.0,7,4.0,8.0,71,11.0,3.0,1.0,10.0,9.0,9,6.0,17,25,120,20.0,3.0,3.0,10,5.0,4.0,1.0,6.0,49,14.0,1.0,5.0,2,8.0,,11,37,5,12.0,47,7.0,5.0,3.0,6.0,14.0,8.0,6.0,20,12.0,78,9.0,4.0,5.0,46,,14.0,8.0,,1.0,10.0,22,6.0,4.0,,14,,13.0,2.0,11,4.0,120,36,6.0,,62,1.0,106,10,6.0,7,1.0,6.0,3.0,38,4.0,16.0
2017-02-19,16,14,5.0,,15.0,10.0,5.0,,7.0,,27.0,1.0,3.0,4.0,9.0,37,1.0,7.0,6.0,18.0,3,5.0,4.0,15.0,1.0,8.0,5.0,14,4.0,11.0,6.0,19,3.0,12,2.0,11.0,3.0,6.0,14.0,9.0,18.0,4.0,30.0,3.0,11.0,11.0,,2.0,,6.0,8.0,22.0,39,2.0,5.0,16,109,2.0,4.0,13,36,25.0,120,25.0,121,6,27,22,9.0,47,4.0,120,8,17,22,2.0,9.0,16.0,,10.0,3.0,4.0,4.0,20,25,5.0,1.0,8.0,11,5.0,2.0,25,13,,11.0,23.0,5.0,2.0,11,7.0,28,28,13.0,9.0,3.0,4.0,2.0,120,6.0,5.0,68,2.0,6.0,10.0,2.0,2.0,4,1.0,11,7.0,120,3.0,,,8.0,120,7.0,34.0,19,1.0,1.0,26.0,83,8.0,12.0,8.0,2.0,3.0,8.0,12.0,12.0,,22.0,10.0,120,5,,11.0,,4,2.0,84,3.0,13.0,8.0,5.0,43,1.0,4.0,6.0,34,120,7.0,120,9.0,7.0,6.0,16.0,13,13,12.0,18.0,16.0,3,8.0,2.0,11,3.0,3.0,3.0,5.0,27.0,6.0,15,7.0,,3.0,13.0,7.0,5.0,,3.0,24,31.0,7.0,9.0,52,25,54,3.0,120,8.0,4.0,8,120,,5.0,,2.0,17,7.0,20.0,18,5.0,4,14.0,6,22,23,15,2.0,1.0,11.0,18.0,4.0,,2.0,5.0,4.0,1.0,4.0,13,75,17,6.0,3.0,18.0,21,14,6.0,87,13,5,2.0,5.0,1.0,,10,15.0,,4.0,21.0,4.0,9,1.0,17,18,7.0,10,8.0,3.0,8.0,15,2.0,14.0,1.0,3.0,9,5,3.0,21.0,6.0,,12.0,6.0,16.0,5.0,6.0,8.0,,21,1.0,5.0,7.0,2.0,31,4.0,1.0,3.0,19,19,3.0,5.0,6.0,42,7.0,36,70,7.0,120,6.0,3.0,116,20.0,17,118,5.0,25,23,9.0,2.0,7.0,2.0,4.0,6.0,51,5.0,72,3.0,4.0,11.0,4.0,37,3.0,6.0,13,52,11.0,23,6.0,6.0,81,24.0,2.0,7.0,5.0,2.0,15,7,5.0,52,16,22.0,8,11,,8.0,16.0,22,5.0,15.0,8.0,6.0,2.0,5.0,3,49,4.0,3.0,12,,120,4.0,11.0,6.0,10,1.0,22.0,1.0,,35.0,5,1.0,,,11.0,95,5.0,14.0,7,,1.0,1.0,4.0,6.0,31,8,120,,4.0,6.0,26,17,2.0,14,6.0,79,15,9.0,11,3.0,66,46,,13,5.0,2.0,5.0,5.0,4.0,4,1.0,4.0,11,3.0,12,19,21,12.0,25.0,1.0,5.0,31,3.0,7.0,52,7.0,4.0,7.0,11.0,8.0,8,15.0,23,32,120,7.0,2.0,8.0,34,5.0,3.0,2.0,1.0,53,4.0,1.0,11.0,4,5.0,,11,28,7,8.0,56,3.0,8.0,5.0,15.0,2.0,,8.0,9,3.0,65,3.0,12.0,7.0,42,6.0,3.0,11.0,,7.0,3.0,19,3.0,2.0,,29,,50.0,1.0,10,8.0,120,42,2.0,2.0,13,2.0,107,20,12.0,17,20.0,1.0,2.0,34,2.0,19.0
2017-02-20,26,23,8.0,,8.0,13.0,7.0,4.0,9.0,,12.0,12.0,7.0,17.0,10.0,38,2.0,5.0,4.0,23.0,9,16.0,2.0,17.0,15.0,9.0,13.0,28,7.0,22.0,10.0,32,2.0,21,14.0,9.0,6.0,6.0,10.0,10.0,11.0,7.0,30.0,9.0,,2.0,2.0,8.0,3.0,2.0,5.0,22.0,78,13.0,20.0,19,120,7.0,5.0,58,35,53.0,120,9.0,120,10,33,20,27.0,74,7.0,120,12,12,24,3.0,11.0,97.0,4.0,7.0,8.0,5.0,5.0,11,22,1.0,7.0,9.0,28,7.0,6.0,20,10,,11.0,16.0,5.0,3.0,17,10.0,37,32,3.0,10.0,7.0,,1.0,120,,10.0,44,4.0,2.0,10.0,9.0,10.0,4,2.0,4,18.0,120,4.0,6.0,7.0,21.0,120,19.0,16.0,17,15.0,1.0,9.0,94,22.0,3.0,12.0,,3.0,12.0,3.0,11.0,5.0,22.0,15.0,120,8,2.0,6.0,2.0,29,5.0,111,6.0,4.0,15.0,13.0,53,1.0,11.0,7.0,80,120,11.0,120,9.0,4.0,9.0,14.0,12,21,17.0,10.0,9.0,67,,6.0,18,7.0,2.0,11.0,8.0,28.0,7.0,12,8.0,2.0,11.0,8.0,7.0,8.0,4.0,1.0,34,35.0,6.0,9.0,68,33,13,12.0,120,10.0,1.0,12,120,8.0,8.0,,4.0,7,5.0,6.0,18,12.0,23,17.0,1,20,20,22,4.0,7.0,16.0,5.0,1.0,,,6.0,9.0,2.0,,8,66,20,5.0,4.0,79.0,31,16,1.0,102,15,8,10.0,5.0,,3.0,8,7.0,,2.0,27.0,4.0,9,3.0,35,29,7.0,10,14.0,1.0,11.0,36,8.0,13.0,13.0,5.0,18,11,1.0,10.0,4.0,5.0,15.0,18.0,11.0,6.0,13.0,15.0,,21,9.0,6.0,5.0,16.0,36,5.0,4.0,12.0,20,46,3.0,2.0,15.0,44,5.0,15,67,8.0,120,8.0,4.0,120,22.0,26,116,14.0,22,26,7.0,1.0,7.0,9.0,6.0,6.0,118,9.0,120,10.0,3.0,6.0,7.0,30,3.0,8.0,28,45,9.0,31,16.0,15.0,60,14.0,,12.0,11.0,9.0,19,13,,66,10,21.0,15,16,6.0,17.0,12.0,18,6.0,32.0,6.0,8.0,7.0,12.0,9,76,9.0,4.0,8,1.0,120,3.0,4.0,7.0,14,4.0,26.0,6.0,,38.0,14,8.0,1.0,5.0,7.0,113,5.0,14.0,24,,3.0,2.0,6.0,5.0,20,8,120,2.0,7.0,2.0,48,16,3.0,19,11.0,58,14,5.0,12,9.0,66,63,4.0,23,5.0,5.0,5.0,8.0,9.0,8,6.0,19.0,6,16.0,15,18,13,11.0,4.0,6.0,9.0,10,7.0,2.0,71,2.0,2.0,11.0,7.0,7.0,11,5.0,23,36,120,15.0,4.0,4.0,15,8.0,14.0,5.0,4.0,28,3.0,,13.0,6,3.0,,4,16,21,11.0,60,8.0,6.0,4.0,16.0,3.0,6.0,14.0,17,10.0,72,9.0,13.0,8.0,49,12.0,46.0,10.0,9.0,23.0,3.0,15,7.0,11.0,,22,,11.0,5.0,11,8.0,120,26,6.0,8.0,23,8.0,118,20,7.0,23,14.0,1.0,5.0,44,13.0,11.0
2017-02-21,46,59,43.0,,24.0,39.0,17.0,9.0,14.0,,11.0,11.0,10.0,31.0,20.0,65,6.0,16.0,11.0,24.0,25,7.0,5.0,13.0,31.0,11.0,6.0,51,53.0,67.0,10.0,55,5.0,30,9.0,8.0,7.0,14.0,15.0,9.0,9.0,10.0,25.0,24.0,14.0,10.0,20.0,12.0,2.0,3.0,18.0,1.0,93,23.0,7.0,13,120,31.0,4.0,120,60,12.0,120,14.0,120,7,93,85,21.0,120,9.0,120,17,31,74,6.0,25.0,81.0,5.0,9.0,2.0,5.0,7.0,55,36,6.0,6.0,15.0,72,9.0,17.0,30,21,10.0,14.0,19.0,20.0,4.0,21,26.0,47,48,7.0,12.0,5.0,29.0,18.0,120,5.0,15.0,120,3.0,10.0,20.0,6.0,5.0,30,15.0,18,38.0,120,12.0,7.0,6.0,13.0,120,7.0,15.0,69,9.0,,24.0,120,11.0,39.0,37.0,14.0,6.0,8.0,6.0,7.0,4.0,45.0,26.0,120,19,7.0,11.0,8.0,31,10.0,120,8.0,7.0,23.0,19.0,120,7.0,8.0,35.0,59,120,13.0,120,17.0,12.0,7.0,13.0,35,17,21.0,10.0,29.0,120,11.0,12.0,11,11.0,7.0,12.0,13.0,25.0,14.0,32,13.0,2.0,10.0,49.0,9.0,6.0,3.0,12.0,56,55.0,9.0,16.0,120,120,35,4.0,120,30.0,2.0,18,120,12.0,9.0,,6.0,29,27.0,7.0,27,14.0,14,24.0,20,22,30,46,5.0,16.0,14.0,26.0,16.0,,3.0,7.0,11.0,1.0,14.0,15,120,52,3.0,6.0,94.0,43,19,6.0,120,27,3,19.0,19.0,,4.0,9,15.0,,4.0,48.0,11.0,25,7.0,108,60,17.0,17,25.0,51.0,11.0,47,21.0,14.0,3.0,6.0,26,34,11.0,29.0,12.0,6.0,18.0,25.0,20.0,4.0,13.0,18.0,,19,22.0,21.0,22.0,68.0,112,14.0,16.0,17.0,25,28,7.0,3.0,9.0,60,16.0,29,81,17.0,120,9.0,17.0,120,23.0,25,119,14.0,18,50,15.0,1.0,12.0,8.0,25.0,14.0,120,12.0,120,36.0,14.0,6.0,4.0,33,2.0,11.0,41,120,15.0,38,23.0,11.0,120,34.0,4.0,12.0,20.0,11.0,24,20,8.0,45,15,19.0,30,23,3.0,17.0,27.0,30,2.0,42.0,9.0,11.0,35.0,12.0,12,120,5.0,39.0,24,6.0,120,13.0,49.0,15.0,13,7.0,13.0,12.0,5.0,40.0,49,16.0,13.0,6.0,5.0,120,34.0,17.0,15,12.0,9.0,4.0,18.0,14.0,26,23,109,16.0,10.0,10.0,38,120,6.0,14,11.0,85,51,15.0,16,11.0,120,112,12.0,23,9.0,18.0,18.0,8.0,2.0,12,4.0,33.0,17,9.0,25,13,4,13.0,8.0,13.0,34.0,16,8.0,10.0,120,11.0,4.0,11.0,11.0,8.0,18,8.0,64,120,120,33.0,14.0,13.0,39,6.0,11.0,8.0,7.0,69,7.0,,10.0,17,12.0,,23,54,22,18.0,54,23.0,10.0,11.0,16.0,9.0,24.0,8.0,38,17.0,120,17.0,31.0,13.0,70,16.0,19.0,18.0,5.0,5.0,20.0,120,8.0,7.0,,27,,25.0,4.0,13,10.0,120,50,12.0,8.0,30,9.0,120,29,8.0,31,14.0,6.0,24.0,39,12.0,23.0
2017-02-22,40,57,36.0,,33.0,20.0,25.0,3.0,11.0,,23.0,11.0,20.0,8.0,16.0,57,11.0,6.0,11.0,40.0,16,8.0,9.0,12.0,16.0,14.0,14.0,46,36.0,49.0,8.0,68,14.0,120,16.0,19.0,4.0,11.0,9.0,8.0,20.0,16.0,16.0,16.0,9.0,13.0,7.0,35.0,1.0,6.0,20.0,6.0,98,12.0,15.0,15,120,58.0,10.0,77,47,40.0,120,26.0,120,10,105,90,9.0,120,19.0,120,17,27,48,,3.0,120.0,14.0,14.0,5.0,6.0,9.0,25,58,3.0,11.0,7.0,65,9.0,21.0,19,31,,10.0,10.0,14.0,19.0,12,20.0,58,46,4.0,37.0,17.0,18.0,7.0,120,2.0,8.0,120,5.0,3.0,15.0,11.0,11.0,21,4.0,27,46.0,83,14.0,2.0,10.0,30.0,120,8.0,18.0,48,9.0,5.0,17.0,120,41.0,21.0,26.0,4.0,2.0,16.0,7.0,13.0,9.0,74.0,23.0,120,14,18.0,16.0,2.0,36,12.0,120,6.0,5.0,120.0,11.0,87,8.0,8.0,120.0,103,120,15.0,120,17.0,11.0,2.0,12.0,28,32,18.0,9.0,29.0,120,4.0,5.0,21,3.0,1.0,20.0,5.0,37.0,15.0,27,8.0,2.0,10.0,12.0,10.0,14.0,8.0,38.0,76,16.0,5.0,8.0,120,104,34,7.0,120,23.0,13.0,32,120,9.0,13.0,,4.0,21,120.0,5.0,25,70.0,27,12.0,20,31,31,32,19.0,29.0,15.0,42.0,7.0,,4.0,3.0,20.0,11.0,8.0,12,117,37,9.0,6.0,53.0,47,40,10.0,120,30,11,4.0,30.0,,8.0,12,21.0,,14.0,24.0,16.0,37,10.0,120,70,27.0,5,16.0,40.0,13.0,36,19.0,7.0,2.0,4.0,8,24,4.0,12.0,5.0,20.0,21.0,46.0,37.0,19.0,14.0,5.0,,29,4.0,12.0,5.0,30.0,74,12.0,10.0,8.0,46,53,4.0,9.0,13.0,70,5.0,41,115,10.0,119,3.0,10.0,120,19.0,82,119,7.0,20,55,35.0,,9.0,3.0,12.0,14.0,87,5.0,120,21.0,5.0,11.0,10.0,68,4.0,21.0,46,120,11.0,68,21.0,12.0,120,17.0,2.0,5.0,22.0,11.0,14,31,5.0,62,13,32.0,13,19,4.0,16.0,14.0,24,9.0,36.0,16.0,6.0,33.0,14.0,13,120,5.0,9.0,13,13.0,120,9.0,16.0,8.0,15,12.0,19.0,17.0,4.0,33.0,47,20.0,7.0,7.0,2.0,120,7.0,12.0,15,4.0,2.0,5.0,10.0,42.0,67,15,106,9.0,17.0,5.0,76,117,2.0,22,5.0,94,53,17.0,10,6.0,120,78,7.0,20,11.0,48.0,13.0,5.0,11.0,17,7.0,21.0,31,15.0,27,32,8,36.0,10.0,27.0,29.0,18,8.0,15.0,120,8.0,13.0,10.0,16.0,3.0,19,6.0,41,52,120,118.0,10.0,35.0,35,8.0,27.0,7.0,12.0,50,4.0,2.0,5.0,19,10.0,,45,48,17,56.0,59,15.0,7.0,12.0,18.0,6.0,17.0,6.0,22,15.0,120,6.0,9.0,9.0,112,16.0,3.0,26.0,13.0,4.0,7.0,73,6.0,14.0,,31,,39.0,5.0,12,25.0,120,43,9.0,6.0,29,6.0,114,42,7.0,22,21.0,2.0,16.0,98,11.0,12.0
2017-02-23,27,48,109.0,,6.0,25.0,30.0,22.0,11.0,,17.0,5.0,18.0,19.0,16.0,75,7.0,8.0,39.0,48.0,16,19.0,7.0,9.0,19.0,10.0,13.0,21,27.0,52.0,19.0,100,4.0,120,18.0,9.0,13.0,18.0,8.0,16.0,20.0,9.0,24.0,23.0,8.0,18.0,12.0,18.0,3.0,10.0,10.0,4.0,73,6.0,18.0,18,120,15.0,3.0,88,59,20.0,120,21.0,120,11,77,97,1.0,120,12.0,120,21,30,51,2.0,10.0,106.0,7.0,16.0,2.0,8.0,3.0,57,41,2.0,,3.0,33,14.0,12.0,18,19,2.0,6.0,27.0,22.0,2.0,7,38.0,46,51,9.0,13.0,17.0,8.0,12.0,120,3.0,5.0,120,11.0,6.0,53.0,5.0,8.0,25,2.0,120,21.0,39,8.0,19.0,9.0,25.0,120,97.0,42.0,23,7.0,2.0,14.0,120,23.0,23.0,9.0,39.0,3.0,26.0,12.0,15.0,8.0,23.0,13.0,120,16,7.0,15.0,,24,19.0,120,3.0,15.0,62.0,7.0,91,5.0,11.0,120.0,77,120,14.0,120,6.0,19.0,21.0,10.0,22,27,13.0,22.0,18.0,120,16.0,8.0,15,9.0,5.0,17.0,7.0,11.0,34.0,16,10.0,1.0,23.0,19.0,7.0,6.0,9.0,23.0,71,25.0,10.0,26.0,89,63,60,15.0,120,13.0,8.0,26,120,12.0,29.0,,,29,69.0,6.0,29,24.0,32,15.0,16,28,32,32,16.0,11.0,3.0,37.0,18.0,,3.0,2.0,16.0,8.0,15.0,28,98,32,7.0,20.0,120.0,43,86,6.0,120,41,9,11.0,18.0,1.0,3.0,13,21.0,,8.0,15.0,3.0,34,10.0,109,50,17.0,13,25.0,24.0,11.0,39,22.0,4.0,4.0,5.0,27,15,7.0,20.0,9.0,9.0,9.0,31.0,64.0,8.0,12.0,8.0,,36,5.0,19.0,21.0,26.0,120,23.0,5.0,18.0,40,58,12.0,6.0,25.0,120,27.0,24,111,13.0,120,7.0,19.0,120,5.0,31,120,4.0,24,41,8.0,,4.0,9.0,13.0,18.0,119,29.0,120,43.0,,20.0,23.0,64,15.0,12.0,61,120,7.0,78,120.0,24.0,120,25.0,10.0,9.0,17.0,13.0,19,34,8.0,67,13,85.0,38,29,12.0,10.0,17.0,27,5.0,36.0,10.0,23.0,9.0,13.0,11,120,11.0,14.0,9,8.0,120,15.0,20.0,18.0,17,5.0,11.0,14.0,6.0,9.0,29,16.0,6.0,5.0,13.0,120,13.0,8.0,13,25.0,9.0,5.0,17.0,17.0,41,14,117,12.0,31.0,14.0,51,109,2.0,12,6.0,89,56,12.0,13,10.0,120,99,16.0,15,4.0,19.0,19.0,15.0,12.0,4,25.0,104.0,47,28.0,31,19,22,19.0,35.0,52.0,16.0,23,3.0,11.0,117,7.0,9.0,3.0,44.0,7.0,20,6.0,51,39,120,62.0,8.0,15.0,39,9.0,33.0,6.0,13.0,54,17.0,1.0,6.0,23,21.0,,29,22,23,26.0,64,11.0,11.0,7.0,27.0,6.0,22.0,13.0,19,16.0,120,16.0,19.0,8.0,86,9.0,15.0,22.0,37.0,6.0,6.0,27,17.0,19.0,,36,,59.0,14.0,16,23.0,120,54,4.0,17.0,39,13.0,120,34,10.0,22,116.0,4.0,16.0,109,12.0,19.0
2017-02-24,23,36,98.0,,7.0,42.0,20.0,18.0,19.0,,14.0,10.0,20.0,10.0,21.0,120,5.0,3.0,20.0,48.0,17,14.0,14.0,14.0,22.0,14.0,10.0,31,17.0,25.0,19.0,120,4.0,97,17.0,14.0,9.0,22.0,9.0,5.0,26.0,6.0,20.0,14.0,8.0,16.0,12.0,9.0,,7.0,23.0,6.0,77,24.0,13.0,10,120,17.0,7.0,80,58,26.0,120,16.0,120,7,55,100,17.0,120,22.0,120,14,26,35,4.0,7.0,90.0,19.0,10.0,6.0,7.0,8.0,87,30,6.0,2.0,11.0,32,12.0,12.0,19,11,2.0,4.0,11.0,28.0,1.0,19,20.0,75,50,21.0,10.0,4.0,23.0,4.0,120,3.0,6.0,120,17.0,7.0,18.0,20.0,8.0,20,9.0,120,20.0,30,2.0,16.0,13.0,30.0,120,25.0,21.0,34,8.0,5.0,23.0,120,39.0,9.0,18.0,9.0,5.0,13.0,7.0,9.0,53.0,25.0,12.0,120,15,18.0,13.0,7.0,26,26.0,120,5.0,5.0,21.0,13.0,60,10.0,11.0,120.0,80,120,11.0,120,15.0,38.0,8.0,8.0,23,15,23.0,11.0,19.0,79,12.0,9.0,15,9.0,3.0,16.0,14.0,31.0,13.0,11,7.0,3.0,16.0,15.0,9.0,17.0,10.0,7.0,51,24.0,7.0,32.0,116,107,29,10.0,120,12.0,7.0,18,120,28.0,64.0,,5.0,34,50.0,32.0,51,12.0,26,34.0,14,23,35,16,9.0,9.0,8.0,19.0,20.0,1.0,6.0,14.0,12.0,7.0,11.0,16,56,25,13.0,10.0,120.0,43,45,5.0,120,33,14,8.0,19.0,1.0,14.0,22,13.0,,3.0,26.0,10.0,25,12.0,120,51,12.0,10,13.0,28.0,18.0,73,7.0,3.0,6.0,7.0,25,25,7.0,22.0,13.0,13.0,19.0,26.0,44.0,8.0,20.0,10.0,,22,11.0,14.0,4.0,29.0,77,26.0,7.0,9.0,30,47,16.0,37.0,5.0,120,4.0,51,95,7.0,120,8.0,45.0,120,12.0,32,120,16.0,18,61,6.0,2.0,5.0,6.0,11.0,17.0,99,10.0,120,120.0,4.0,24.0,14.0,61,20.0,15.0,45,120,20.0,83,120.0,20.0,120,35.0,8.0,4.0,15.0,5.0,19,19,8.0,51,12,59.0,55,32,2.0,17.0,10.0,39,9.0,32.0,15.0,9.0,33.0,22.0,10,68,8.0,37.0,10,14.0,120,13.0,17.0,16.0,19,7.0,12.0,10.0,4.0,17.0,39,15.0,7.0,19.0,12.0,120,11.0,15.0,15,54.0,11.0,2.0,21.0,10.0,40,13,110,9.0,18.0,11.0,62,114,6.0,22,11.0,105,33,20.0,26,7.0,120,72,6.0,14,21.0,11.0,20.0,18.0,11.0,26,6.0,52.0,23,10.0,42,30,14,22.0,22.0,25.0,11.0,39,4.0,7.0,120,11.0,5.0,11.0,16.0,4.0,20,5.0,48,66,120,49.0,17.0,3.0,18,11.0,12.0,9.0,24.0,50,10.0,1.0,10.0,23,18.0,,18,27,17,23.0,48,11.0,33.0,4.0,14.0,9.0,35.0,16.0,18,14.0,120,17.0,12.0,29.0,72,29.0,21.0,13.0,36.0,8.0,17.0,33,10.0,10.0,1.0,31,,36.0,15.0,19,17.0,120,51,9.0,12.0,34,8.0,100,30,27.0,49,120.0,11.0,12.0,61,5.0,15.0
2017-02-25,10,15,16.0,,2.0,7.0,4.0,5.0,10.0,,6.0,9.0,6.0,4.0,7.0,23,2.0,4.0,7.0,13.0,8,3.0,6.0,2.0,4.0,2.0,4.0,7,8.0,13.0,20.0,31,3.0,30,3.0,1.0,4.0,8.0,2.0,5.0,4.0,8.0,5.0,11.0,2.0,8.0,8.0,7.0,1.0,3.0,7.0,,38,6.0,5.0,6,120,22.0,3.0,29,24,10.0,120,4.0,120,9,18,21,1.0,51,6.0,120,8,14,25,2.0,1.0,8.0,,5.0,2.0,3.0,1.0,25,17,3.0,1.0,1.0,29,10.0,7.0,12,12,,4.0,6.0,3.0,1.0,7,17.0,41,9,3.0,6.0,4.0,9.0,,120,8.0,1.0,77,8.0,5.0,5.0,3.0,7.0,9,1.0,23,8.0,13,,1.0,4.0,7.0,120,12.0,7.0,15,4.0,2.0,3.0,51,11.0,3.0,13.0,,,9.0,6.0,7.0,28.0,5.0,8.0,120,11,9.0,7.0,2.0,12,10.0,70,4.0,1.0,14.0,3.0,53,2.0,6.0,37.0,31,120,5.0,120,10.0,10.0,1.0,5.0,22,16,14.0,5.0,11.0,51,1.0,3.0,5,10.0,,9.0,6.0,6.0,6.0,40,3.0,3.0,4.0,11.0,5.0,2.0,4.0,17.0,22,3.0,7.0,13.0,24,31,6,3.0,120,5.0,3.0,14,120,4.0,8.0,,6.0,17,19.0,1.0,16,7.0,9,9.0,5,14,23,6,11.0,5.0,2.0,9.0,11.0,,3.0,3.0,5.0,,8.0,5,38,13,2.0,4.0,32.0,42,12,1.0,58,16,4,9.0,11.0,,1.0,5,4.0,,5.0,8.0,3.0,14,5.0,29,32,9.0,9,5.0,20.0,7.0,32,4.0,10.0,3.0,8.0,10,10,4.0,13.0,5.0,1.0,3.0,13.0,17.0,6.0,8.0,9.0,,7,3.0,,6.0,8.0,36,10.0,3.0,4.0,13,12,12.0,13.0,2.0,40,1.0,26,66,7.0,120,4.0,8.0,93,1.0,14,71,5.0,11,22,4.0,,1.0,1.0,10.0,4.0,52,3.0,104,36.0,1.0,4.0,10.0,22,5.0,7.0,21,69,4.0,21,14.0,11.0,58,7.0,,3.0,2.0,15.0,12,8,2.0,30,5,10.0,14,8,3.0,11.0,8.0,10,2.0,7.0,6.0,9.0,4.0,9.0,5,18,9.0,15.0,8,,120,3.0,2.0,5.0,12,2.0,6.0,9.0,,2.0,18,1.0,4.0,5.0,8.0,109,3.0,11.0,15,2.0,27.0,,3.0,6.0,8,9,120,9.0,4.0,4.0,51,25,1.0,3,6.0,51,9,7.0,14,5.0,52,55,4.0,5,1.0,5.0,2.0,6.0,3.0,6,3.0,11.0,9,4.0,36,14,10,5.0,4.0,9.0,11.0,7,2.0,2.0,61,6.0,2.0,5.0,10.0,4.0,13,3.0,23,25,120,12.0,5.0,2.0,11,4.0,2.0,,3.0,17,5.0,6.0,5.0,6,3.0,,7,12,12,3.0,33,1.0,15.0,2.0,18.0,11.0,24.0,3.0,8,3.0,68,11.0,7.0,5.0,38,9.0,16.0,9.0,9.0,1.0,3.0,7,6.0,5.0,,12,,4.0,7.0,19,11.0,120,15,7.0,6.0,13,1.0,44,13,9.0,9,28.0,1.0,2.0,40,1.0,9.0
2017-02-26,13,8,7.0,,2.0,9.0,9.0,1.0,9.0,,1.0,9.0,12.0,1.0,4.0,12,1.0,3.0,7.0,9.0,8,1.0,5.0,6.0,4.0,3.0,5.0,7,4.0,9.0,3.0,29,1.0,78,3.0,3.0,2.0,16.0,1.0,4.0,4.0,11.0,6.0,1.0,4.0,8.0,2.0,3.0,1.0,4.0,1.0,1.0,63,9.0,2.0,3,100,1.0,5.0,21,19,3.0,120,4.0,120,9,20,21,5.0,55,3.0,120,15,4,42,1.0,2.0,3.0,3.0,8.0,2.0,3.0,1.0,11,19,4.0,5.0,1.0,8,9.0,4.0,6,7,,,1.0,2.0,1.0,9,5.0,24,22,6.0,4.0,4.0,5.0,5.0,120,,3.0,61,3.0,4.0,2.0,1.0,4.0,8,,17,8.0,23,1.0,1.0,4.0,10.0,113,6.0,5.0,11,4.0,1.0,2.0,36,1.0,7.0,5.0,,1.0,5.0,3.0,1.0,22.0,9.0,1.0,120,2,2.0,5.0,2.0,15,5.0,62,2.0,1.0,7.0,6.0,59,4.0,2.0,29.0,37,120,4.0,120,6.0,9.0,4.0,1.0,10,21,7.0,6.0,4.0,42,1.0,2.0,10,7.0,,8.0,6.0,11.0,3.0,44,4.0,,7.0,8.0,1.0,1.0,,5.0,20,7.0,3.0,8.0,41,15,26,7.0,120,10.0,,14,120,,2.0,,4.0,9,10.0,,13,3.0,12,7.0,4,18,14,8,2.0,7.0,3.0,7.0,1.0,,,2.0,5.0,,3.0,17,31,8,3.0,,19.0,22,17,3.0,48,9,8,3.0,1.0,,4.0,4,5.0,,,9.0,2.0,14,5.0,22,26,3.0,5,2.0,3.0,4.0,31,5.0,4.0,8.0,5.0,8,6,2.0,4.0,6.0,1.0,1.0,8.0,7.0,,4.0,8.0,,10,1.0,6.0,4.0,1.0,50,3.0,6.0,5.0,14,10,1.0,3.0,4.0,38,2.0,26,27,2.0,119,4.0,3.0,81,7.0,13,66,3.0,12,20,3.0,,,2.0,6.0,4.0,71,5.0,98,23.0,2.0,4.0,6.0,29,1.0,4.0,15,57,5.0,18,8.0,7.0,77,5.0,2.0,,3.0,17.0,11,10,1.0,43,8,14.0,19,8,4.0,4.0,7.0,23,3.0,7.0,4.0,5.0,8.0,1.0,2,31,4.0,4.0,10,1.0,120,2.0,6.0,4.0,7,1.0,1.0,4.0,,2.0,16,,,2.0,,80,1.0,11.0,4,10.0,8.0,10.0,4.0,3.0,8,4,116,1.0,6.0,,55,28,,4,4.0,35,12,5.0,5,4.0,49,23,5.0,5,3.0,3.0,1.0,6.0,3.0,10,8.0,3.0,5,2.0,27,16,6,2.0,6.0,2.0,5.0,9,6.0,5.0,53,7.0,2.0,6.0,2.0,,8,,16,20,120,10.0,7.0,,19,8.0,4.0,1.0,1.0,10,1.0,,6.0,10,3.0,,4,7,5,14.0,43,4.0,7.0,3.0,8.0,8.0,4.0,7.0,5,,61,4.0,4.0,2.0,28,4.0,1.0,2.0,2.0,3.0,5.0,2,4.0,8.0,,9,,13.0,2.0,9,5.0,120,5,5.0,1.0,7,3.0,30,11,3.0,17,15.0,,3.0,22,5.0,4.0
2017-02-27,46,23,20.0,,11.0,13.0,18.0,8.0,10.0,,14.0,4.0,17.0,37.0,45.0,68,2.0,6.0,37.0,26.0,21,6.0,2.0,12.0,14.0,7.0,8.0,58,18.0,31.0,14.0,78,1.0,112,13.0,7.0,2.0,54.0,9.0,4.0,20.0,12.0,7.0,3.0,8.0,16.0,25.0,14.0,1.0,12.0,20.0,4.0,120,24.0,17.0,20,120,9.0,6.0,73,49,21.0,120,76.0,120,6,61,84,13.0,122,10.0,120,16,23,76,1.0,1.0,107.0,10.0,36.0,5.0,5.0,2.0,35,53,7.0,6.0,11.0,25,13.0,15.0,71,18,7.0,4.0,13.0,28.0,5.0,12,10.0,47,26,25.0,15.0,7.0,6.0,6.0,120,2.0,11.0,120,16.0,2.0,12.0,9.0,5.0,44,1.0,49,11.0,68,13.0,3.0,12.0,19.0,120,15.0,23.0,22,3.0,5.0,19.0,120,37.0,13.0,19.0,28.0,6.0,10.0,12.0,6.0,23.0,13.0,17.0,120,13,21.0,6.0,15.0,60,18.0,117,7.0,16.0,18.0,10.0,84,7.0,3.0,59.0,113,120,6.0,120,14.0,33.0,15.0,9.0,34,29,17.0,13.0,23.0,120,5.0,5.0,20,12.0,1.0,17.0,7.0,40.0,11.0,92,5.0,3.0,16.0,13.0,18.0,12.0,8.0,8.0,62,30.0,5.0,24.0,84,64,62,20.0,119,7.0,25.0,20,120,13.0,23.0,,1.0,35,44.0,9.0,56,22.0,9,18.0,8,24,24,22,10.0,4.0,3.0,37.0,11.0,,4.0,13.0,7.0,19.0,11.0,14,101,14,13.0,24.0,108.0,40,50,7.0,120,22,8,12.0,10.0,,5.0,13,21.0,,13.0,16.0,8.0,28,21.0,114,37,28.0,7,15.0,21.0,24.0,120,101.0,4.0,11.0,7.0,28,17,7.0,20.0,14.0,23.0,10.0,18.0,53.0,6.0,16.0,9.0,,39,3.0,16.0,8.0,17.0,110,18.0,8.0,12.0,33,68,9.0,9.0,10.0,107,6.0,71,120,3.0,120,5.0,25.0,120,4.0,25,120,9.0,42,32,9.0,2.0,3.0,,16.0,25.0,115,6.0,120,64.0,1.0,14.0,10.0,114,11.0,6.0,41,120,21.0,85,66.0,11.0,120,17.0,7.0,5.0,5.0,20.0,10,22,5.0,61,22,32.0,45,18,2.0,24.0,11.0,72,1.0,21.0,21.0,12.0,13.0,7.0,14,52,5.0,10.0,17,4.0,120,5.0,11.0,10.0,10,2.0,9.0,17.0,4.0,6.0,81,15.0,6.0,12.0,7.0,120,10.0,18.0,25,63.0,6.0,32.0,11.0,20.0,38,19,120,10.0,44.0,7.0,98,120,14.0,7,4.0,114,49,16.0,15,13.0,120,115,13.0,6,11.0,4.0,7.0,10.0,27.0,12,5.0,35.0,24,7.0,36,24,32,49.0,19.0,22.0,8.0,44,5.0,23.0,120,14.0,3.0,4.0,14.0,2.0,19,,58,58,120,31.0,22.0,7.0,24,6.0,20.0,12.0,9.0,91,6.0,,11.0,12,13.0,,23,74,28,28.0,46,5.0,7.0,5.0,14.0,7.0,13.0,7.0,27,12.0,120,11.0,17.0,23.0,120,12.0,11.0,19.0,21.0,13.0,2.0,42,9.0,13.0,,27,,58.0,21.0,17,26.0,120,48,10.0,11.0,83,10.0,112,36,16.0,64,72.0,5.0,5.0,69,9.0,26.0
2017-02-28,38,32,15.0,,21.0,29.0,15.0,3.0,15.0,,9.0,12.0,12.0,34.0,27.0,75,4.0,1.0,25.0,34.0,15,2.0,10.0,9.0,9.0,5.0,7.0,24,7.0,72.0,9.0,59,6.0,52,27.0,19.0,5.0,25.0,14.0,12.0,18.0,21.0,4.0,3.0,16.0,37.0,11.0,14.0,4.0,6.0,6.0,4.0,120,17.0,8.0,16,120,13.0,3.0,77,51,25.0,120,64.0,120,7,39,77,9.0,118,16.0,120,24,24,62,7.0,2.0,93.0,10.0,45.0,6.0,9.0,4.0,32,25,,3.0,8.0,34,63.0,15.0,34,13,3.0,6.0,12.0,10.0,,9,14.0,48,22,9.0,14.0,5.0,14.0,8.0,120,11.0,8.0,120,7.0,6.0,10.0,67.0,2.0,19,3.0,57,13.0,19,13.0,4.0,7.0,10.0,114,10.0,10.0,23,7.0,3.0,35.0,120,24.0,19.0,10.0,6.0,8.0,7.0,9.0,4.0,16.0,9.0,6.0,120,30,13.0,4.0,2.0,43,15.0,120,9.0,1.0,20.0,17.0,103,1.0,1.0,53.0,81,120,6.0,120,7.0,47.0,31.0,9.0,15,25,17.0,9.0,24.0,62,1.0,6.0,18,11.0,5.0,5.0,15.0,27.0,11.0,46,6.0,2.0,6.0,7.0,20.0,13.0,6.0,6.0,57,20.0,6.0,14.0,53,84,37,18.0,118,20.0,11.0,34,120,6.0,17.0,,1.0,11,8.0,8.0,65,7.0,21,21.0,11,21,34,31,15.0,11.0,7.0,36.0,17.0,,6.0,9.0,1.0,12.0,2.0,12,74,20,22.0,9.0,57.0,90,33,5.0,120,18,16,15.0,15.0,,1.0,14,21.0,,10.0,13.0,7.0,28,44.0,116,45,8.0,20,16.0,9.0,87.0,120,120.0,3.0,4.0,9.0,18,21,4.0,11.0,8.0,21.0,2.0,17.0,29.0,10.0,11.0,10.0,,16,3.0,16.0,9.0,8.0,64,14.0,11.0,16.0,30,115,3.0,5.0,8.0,83,8.0,20,96,5.0,120,6.0,5.0,120,6.0,21,103,7.0,37,68,12.0,2.0,8.0,10.0,16.0,8.0,74,10.0,120,28.0,7.0,18.0,6.0,84,2.0,3.0,38,120,11.0,120,20.0,8.0,120,20.0,13.0,3.0,5.0,4.0,9,26,3.0,62,27,30.0,29,31,5.0,22.0,11.0,75,5.0,20.0,14.0,5.0,12.0,10.0,14,74,8.0,7.0,20,13.0,120,25.0,11.0,14.0,19,5.0,1.0,11.0,4.0,7.0,85,14.0,4.0,48.0,12.0,120,10.0,17.0,29,15.0,3.0,20.0,8.0,14.0,68,17,120,20.0,87.0,14.0,74,53,14.0,14,4.0,80,49,25.0,12,3.0,120,66,22.0,6,20.0,4.0,6.0,10.0,10.0,16,17.0,34.0,36,4.0,43,24,18,32.0,3.0,21.0,8.0,41,11.0,64.0,96,12.0,10.0,5.0,8.0,6.0,21,5.0,43,27,120,22.0,15.0,3.0,15,10.0,19.0,2.0,8.0,75,28.0,2.0,6.0,21,12.0,,18,39,13,11.0,51,2.0,2.0,5.0,25.0,7.0,11.0,10.0,21,12.0,120,9.0,9.0,55.0,79,15.0,11.0,14.0,13.0,10.0,11.0,29,11.0,11.0,,60,,15.0,4.0,12,23.0,120,24,11.0,11.0,32,5.0,118,26,13.0,97,42.0,3.0,2.0,70,8.0,14.0
2017-03-02,21,27,23.0,,19.0,13.0,18.0,3.0,7.0,,3.0,5.0,7.0,15.0,27.0,59,9.0,3.0,7.0,31.0,22,11.0,11.0,13.0,9.0,7.0,10.0,15,16.0,27.0,3.0,87,7.0,46,10.0,15.0,6.0,10.0,16.0,4.0,8.0,16.0,7.0,11.0,6.0,14.0,24.0,8.0,,7.0,13.0,3.0,75,7.0,11.0,14,120,5.0,8.0,53,64,12.0,120,30.0,120,15,62,76,10.0,120,19.0,118,24,20,108,3.0,7.0,90.0,17.0,31.0,6.0,1.0,3.0,44,50,36.0,2.0,9.0,30,41.0,9.0,30,21,4.0,6.0,58.0,15.0,1.0,27,11.0,83,52,14.0,12.0,1.0,9.0,9.0,120,5.0,12.0,119,17.0,27.0,5.0,57.0,14.0,17,5.0,31,3.0,22,8.0,16.0,6.0,12.0,118,6.0,27.0,28,2.0,1.0,21.0,120,11.0,35.0,8.0,9.0,,6.0,24.0,17.0,11.0,9.0,18.0,120,25,30.0,11.0,4.0,120,10.0,120,9.0,2.0,17.0,15.0,86,15.0,4.0,54.0,88,120,13.0,120,13.0,59.0,12.0,6.0,35,16,19.0,9.0,9.0,70,4.0,4.0,56,9.0,20.0,11.0,20.0,25.0,14.0,39,7.0,1.0,13.0,1.0,18.0,8.0,5.0,7.0,45,22.0,7.0,8.0,60,92,51,33.0,120,6.0,12.0,30,120,32.0,8.0,,6.0,38,12.0,14.0,119,6.0,43,6.0,26,19,46,18,2.0,12.0,4.0,17.0,5.0,,3.0,12.0,5.0,6.0,,6,108,22,8.0,2.0,31.0,53,22,5.0,75,23,10,22.0,25.0,,18.0,9,8.0,,17.0,12.0,7.0,17,24.0,120,56,24.0,21,13.0,8.0,57.0,120,32.0,3.0,2.0,6.0,23,13,3.0,17.0,30.0,10.0,9.0,11.0,26.0,18.0,12.0,4.0,,19,10.0,17.0,1.0,7.0,70,14.0,2.0,7.0,60,30,3.0,13.0,20.0,86,1.0,19,120,10.0,120,15.0,11.0,120,10.0,25,114,8.0,35,59,25.0,2.0,62.0,8.0,7.0,11.0,120,14.0,120,24.0,2.0,15.0,2.0,59,8.0,16.0,29,120,8.0,98,44.0,7.0,120,26.0,2.0,2.0,11.0,34.0,28,38,8.0,29,120,57.0,37,29,3.0,8.0,17.0,120,4.0,26.0,16.0,21.0,19.0,12.0,16,120,5.0,11.0,13,3.0,120,5.0,18.0,16.0,8,2.0,8.0,23.0,7.0,15.0,45,24.0,6.0,20.0,3.0,120,20.0,13.0,72,4.0,55.0,11.0,10.0,8.0,48,6,120,9.0,26.0,7.0,55,102,13.0,25,4.0,120,120,10.0,10,12.0,120,115,9.0,8,8.0,13.0,12.0,8.0,8.0,13,6.0,17.0,44,6.0,12,20,15,37.0,5.0,14.0,23.0,21,9.0,21.0,120,81.0,6.0,7.0,7.0,7.0,14,8.0,102,26,120,35.0,4.0,21.0,29,6.0,28.0,6.0,7.0,55,4.0,3.0,10.0,13,10.0,,24,31,40,17.0,63,20.0,10.0,2.0,13.0,12.0,8.0,9.0,21,15.0,120,2.0,17.0,38.0,64,6.0,17.0,22.0,2.0,2.0,8.0,21,7.0,6.0,,33,,15.0,25.0,6,12.0,120,37,8.0,5.0,18,,95,26,6.0,120,27.0,8.0,5.0,120,18.0,20.0
2017-03-03,25,83,13.0,,8.0,11.0,26.0,6.0,7.0,,2.0,2.0,6.0,4.0,27.0,72,1.0,,4.0,21.0,23,26.0,6.0,8.0,15.0,3.0,10.0,17,6.0,48.0,4.0,51,4.0,25,5.0,3.0,2.0,15.0,10.0,8.0,28.0,25.0,15.0,11.0,,24.0,15.0,17.0,6.0,7.0,7.0,2.0,112,31.0,7.0,12,120,3.0,6.0,59,61,4.0,120,11.0,120,12,52,62,8.0,115,18.0,120,23,30,71,1.0,4.0,95.0,13.0,23.0,4.0,11.0,6.0,29,43,22.0,1.0,8.0,41,28.0,8.0,19,25,1.0,22.0,24.0,5.0,1.0,20,11.0,39,36,4.0,11.0,5.0,7.0,5.0,120,7.0,9.0,115,5.0,19.0,2.0,14.0,11.0,17,10.0,35,7.0,18,8.0,6.0,5.0,10.0,117,4.0,26.0,29,12.0,3.0,13.0,112,18.0,20.0,6.0,6.0,16.0,3.0,21.0,9.0,9.0,14.0,9.0,120,8,19.0,8.0,2.0,120,9.0,110,4.0,8.0,22.0,12.0,44,5.0,1.0,17.0,76,118,8.0,120,6.0,29.0,10.0,2.0,35,16,26.0,18.0,18.0,89,1.0,9.0,34,4.0,,9.0,9.0,42.0,17.0,30,7.0,2.0,13.0,1.0,11.0,8.0,7.0,4.0,47,25.0,7.0,9.0,118,62,26,14.0,120,18.0,18.0,30,120,17.0,5.0,,3.0,29,6.0,9.0,57,6.0,19,21.0,19,13,49,5,13.0,8.0,5.0,22.0,6.0,,,9.0,1.0,3.0,5.0,5,105,19,8.0,5.0,33.0,43,22,4.0,81,19,13,20.0,8.0,,6.0,16,15.0,,18.0,13.0,3.0,16,14.0,120,52,8.0,7,11.0,12.0,18.0,109,51.0,8.0,2.0,10.0,28,14,2.0,11.0,31.0,10.0,8.0,13.0,49.0,9.0,11.0,7.0,,15,21.0,11.0,5.0,11.0,60,12.0,15.0,8.0,46,25,4.0,8.0,9.0,88,3.0,22,119,8.0,120,6.0,9.0,120,10.0,56,120,9.0,48,67,11.0,1.0,27.0,15.0,2.0,5.0,120,10.0,120,16.0,5.0,4.0,5.0,67,3.0,9.0,29,120,7.0,97,44.0,7.0,120,15.0,12.0,4.0,9.0,24.0,21,28,3.0,48,76,49.0,39,16,3.0,15.0,8.0,120,7.0,19.0,18.0,15.0,13.0,17.0,8,72,3.0,9.0,9,,120,15.0,8.0,10.0,35,2.0,12.0,17.0,,14.0,81,12.0,4.0,7.0,5.0,120,14.0,23.0,62,9.0,12.0,9.0,5.0,6.0,21,18,119,6.0,28.0,13.0,60,56,11.0,15,2.0,87,87,9.0,6,4.0,120,83,10.0,6,12.0,21.0,1.0,8.0,10.0,8,6.0,42.0,36,3.0,10,22,13,22.0,10.0,3.0,6.0,56,5.0,23.0,118,107.0,7.0,3.0,14.0,3.0,16,6.0,120,29,120,20.0,7.0,1.0,16,7.0,37.0,3.0,10.0,34,6.0,,8.0,8,16.0,,11,43,29,11.0,47,18.0,28.0,2.0,53.0,15.0,5.0,10.0,17,17.0,115,14.0,2.0,21.0,43,1.0,7.0,10.0,5.0,19.0,2.0,9,19.0,6.0,,35,,27.0,3.0,6,15.0,120,18,5.0,1.0,18,13.0,71,24,1.0,69,21.0,8.0,14.0,108,9.0,12.0
